[Header]
Application Name	LabSolutions
Version	5.92
Data File Name	C:\Samples\20260116_2-000_C-PNIPAM_DMF.lcd
Output Date	2026/01/16
Output Time	14:33:42

[Configuration]
Instrument Name	LC_1
Instrument #	1
Line #	1
# of Detectors	2
Detector ID	Detector A	Detector B
Detector Name	åüèoäÌA	åüèoäÌB
# of Channels	1	1

[Average Molecular Weight Table(Detector A)]
# of Peaks	6
Peak#	Mn	Mw	Mz	Mz1	Mv	Mw/Mn	Mv/Mn	Mz/Mw	I.Visc	%
Total	0	11124	23448	33281	0	1093770.23364	0.00000	2.10787	1.00000	100.0000
1	4049	12744	23460	33281	0	3.14749	0.00000	1.84081	1.00000	87.2399
2	243	260	276	289	0	1.07285	0.00000	1.05896	1.00000	2.0882
3	40	43	45	48	0	1.05487	0.00000	1.06036	1.00000	0.6310
4	20	20	21	22	0	1.03282	0.00000	1.03170	1.00000	0.4473
5	0	1	1	1	0	1.20496	0.00000	1.17475	1.00000	0.4538
6	0	0	0	0	0	1.28172	0.00000	1.26190	1.00000	9.1398

[Average Molecular Weight Table(Detector B)]
# of Peaks	4
Peak#	Mn	Mw	Mz	Mz1	Mv	Mw/Mn	Mv/Mn	Mz/Mw	I.Visc	%
Total	1	53789	111086	187329	0	58067.10425	0.00000	2.06520	1.00000	100.0000
1	24087	55894	111101	187329	0	2.32051	0.00000	1.98772	1.00000	96.2226
2	224	254	293	336	0	1.13428	0.00000	1.15386	1.00000	2.8293
3	19	20	20	21	0	1.03351	0.00000	1.03187	1.00000	0.0530
4	0	0	0	0	0	1.44519	0.00000	1.33941	1.00000	0.8951

[LC Chromatogram(Detector A-Ch1)]
Interval(msec)	500
# of Points	3601
Start Time(min)	0.000
End Time(min)	30.000
Intensity Units	mV
Intensity Multiplier	0.001
Wavelength(nm)	270nm
R.Time (min)	Intensity
0.00000	361
0.00833	361
0.01667	72
0.02500	0
0.03333	0
0.04167	1
0.05000	-0
0.05833	-1
0.06667	-2
0.07500	-1
0.08333	2
0.09167	3
0.10000	6
0.10833	9
0.11667	10
0.12500	11
0.13333	9
0.14167	6
0.15000	5
0.15833	5
0.16667	4
0.17500	3
0.18333	4
0.19167	5
0.20000	5
0.20833	5
0.21667	8
0.22500	10
0.23333	10
0.24167	10
0.25000	10
0.25833	9
0.26667	8
0.27500	7
0.28333	7
0.29167	5
0.30000	7
0.30833	7
0.31667	9
0.32500	11
0.33333	11
0.34167	9
0.35000	10
0.35833	9
0.36667	8
0.37500	7
0.38333	8
0.39167	10
0.40000	10
0.40833	8
0.41667	7
0.42500	6
0.43333	3
0.44167	3
0.45000	4
0.45833	4
0.46667	3
0.47500	2
0.48333	2
0.49167	1
0.50000	2
0.50833	2
0.51667	3
0.52500	3
0.53333	4
0.54167	4
0.55000	3
0.55833	3
0.56667	4
0.57500	5
0.58333	5
0.59167	4
0.60000	3
0.60833	2
0.61667	-0
0.62500	-2
0.63333	-3
0.64167	-3
0.65000	-2
0.65833	-2
0.66667	-3
0.67500	-1
0.68333	2
0.69167	1
0.70000	-1
0.70833	0
0.71667	0
0.72500	-2
0.73333	-4
0.74167	-4
0.75000	-2
0.75833	1
0.76667	2
0.77500	2
0.78333	1
0.79167	-1
0.80000	-3
0.80833	-2
0.81667	-2
0.82500	-3
0.83333	-3
0.84167	-6
0.85000	-9
0.85833	-11
0.86667	-11
0.87500	-11
0.88333	-11
0.89167	-10
0.90000	-8
0.90833	-6
0.91667	-6
0.92500	-6
0.93333	-6
0.94167	-6
0.95000	-5
0.95833	-5
0.96667	-6
0.97500	-7
0.98333	-5
0.99167	-5
1.00000	-6
1.00833	-10
1.01667	-13
1.02500	-14
1.03333	-15
1.04167	-14
1.05000	-14
1.05833	-15
1.06667	-15
1.07500	-12
1.08333	-7
1.09167	-7
1.10000	-8
1.10833	-10
1.11667	-11
1.12500	-11
1.13333	-13
1.14167	-14
1.15000	-15
1.15833	-16
1.16667	-17
1.17500	-16
1.18333	-18
1.19167	-17
1.20000	-15
1.20833	-14
1.21667	-16
1.22500	-16
1.23333	-15
1.24167	-15
1.25000	-15
1.25833	-15
1.26667	-17
1.27500	-18
1.28333	-17
1.29167	-18
1.30000	-17
1.30833	-15
1.31667	-16
1.32500	-15
1.33333	-16
1.34167	-17
1.35000	-17
1.35833	-16
1.36667	-16
1.37500	-16
1.38333	-17
1.39167	-20
1.40000	-22
1.40833	-23
1.41667	-24
1.42500	-24
1.43333	-23
1.44167	-22
1.45000	-23
1.45833	-24
1.46667	-25
1.47500	-25
1.48333	-27
1.49167	-27
1.50000	-28
1.50833	-28
1.51667	-25
1.52500	-24
1.53333	-26
1.54167	-28
1.55000	-30
1.55833	-28
1.56667	-28
1.57500	-27
1.58333	-28
1.59167	-30
1.60000	-33
1.60833	-33
1.61667	-34
1.62500	-35
1.63333	-35
1.64167	-35
1.65000	-34
1.65833	-33
1.66667	-35
1.67500	-36
1.68333	-35
1.69167	-35
1.70000	-35
1.70833	-35
1.71667	-35
1.72500	-35
1.73333	-34
1.74167	-33
1.75000	-33
1.75833	-32
1.76667	-31
1.77500	-30
1.78333	-30
1.79167	-31
1.80000	-34
1.80833	-36
1.81667	-37
1.82500	-37
1.83333	-37
1.84167	-38
1.85000	-37
1.85833	-38
1.86667	-41
1.87500	-40
1.88333	-41
1.89167	-42
1.90000	-41
1.90833	-40
1.91667	-40
1.92500	-40
1.93333	-41
1.94167	-40
1.95000	-40
1.95833	-39
1.96667	-39
1.97500	-40
1.98333	-41
1.99167	-40
2.00000	-38
2.00833	-40
2.01667	-42
2.02500	-42
2.03333	-41
2.04167	-41
2.05000	-42
2.05833	-43
2.06667	-44
2.07500	-43
2.08333	-42
2.09167	-41
2.10000	-41
2.10833	-42
2.11667	-44
2.12500	-44
2.13333	-45
2.14167	-45
2.15000	-45
2.15833	-45
2.16667	-44
2.17500	-43
2.18333	-44
2.19167	-45
2.20000	-46
2.20833	-48
2.21667	-46
2.22500	-45
2.23333	-46
2.24167	-47
2.25000	-48
2.25833	-48
2.26667	-49
2.27500	-49
2.28333	-47
2.29167	-46
2.30000	-46
2.30833	-47
2.31667	-47
2.32500	-46
2.33333	-46
2.34167	-47
2.35000	-48
2.35833	-49
2.36667	-50
2.37500	-50
2.38333	-49
2.39167	-49
2.40000	-50
2.40833	-49
2.41667	-49
2.42500	-48
2.43333	-45
2.44167	-42
2.45000	-40
2.45833	-39
2.46667	-39
2.47500	-39
2.48333	-40
2.49167	-41
2.50000	-39
2.50833	-41
2.51667	-43
2.52500	-43
2.53333	-43
2.54167	-43
2.55000	-43
2.55833	-44
2.56667	-45
2.57500	-46
2.58333	-45
2.59167	-43
2.60000	-43
2.60833	-42
2.61667	-41
2.62500	-42
2.63333	-43
2.64167	-44
2.65000	-43
2.65833	-41
2.66667	-40
2.67500	-39
2.68333	-41
2.69167	-42
2.70000	-43
2.70833	-44
2.71667	-44
2.72500	-46
2.73333	-47
2.74167	-47
2.75000	-47
2.75833	-46
2.76667	-43
2.77500	-41
2.78333	-41
2.79167	-42
2.80000	-44
2.80833	-45
2.81667	-44
2.82500	-43
2.83333	-42
2.84167	-42
2.85000	-43
2.85833	-42
2.86667	-41
2.87500	-42
2.88333	-41
2.89167	-44
2.90000	-45
2.90833	-43
2.91667	-43
2.92500	-45
2.93333	-46
2.94167	-46
2.95000	-47
2.95833	-47
2.96667	-45
2.97500	-42
2.98333	-39
2.99167	-39
3.00000	-40
3.00833	-39
3.01667	-35
3.02500	-36
3.03333	-39
3.04167	-41
3.05000	-41
3.05833	-42
3.06667	-42
3.07500	-41
3.08333	-37
3.09167	-35
3.10000	-35
3.10833	-33
3.11667	-33
3.12500	-33
3.13333	-36
3.14167	-36
3.15000	-37
3.15833	-38
3.16667	-38
3.17500	-39
3.18333	-38
3.19167	-36
3.20000	-35
3.20833	-34
3.21667	-34
3.22500	-34
3.23333	-33
3.24167	-34
3.25000	-34
3.25833	-35
3.26667	-37
3.27500	-38
3.28333	-38
3.29167	-36
3.30000	-32
3.30833	-31
3.31667	-29
3.32500	-27
3.33333	-25
3.34167	-24
3.35000	-25
3.35833	-24
3.36667	-24
3.37500	-21
3.38333	-18
3.39167	-18
3.40000	-18
3.40833	-18
3.41667	-20
3.42500	-21
3.43333	-22
3.44167	-22
3.45000	-20
3.45833	-19
3.46667	-20
3.47500	-23
3.48333	-25
3.49167	-25
3.50000	-23
3.50833	-21
3.51667	-19
3.52500	-20
3.53333	-20
3.54167	-20
3.55000	-17
3.55833	-16
3.56667	-17
3.57500	-19
3.58333	-21
3.59167	-20
3.60000	-18
3.60833	-18
3.61667	-18
3.62500	-17
3.63333	-16
3.64167	-16
3.65000	-16
3.65833	-14
3.66667	-13
3.67500	-13
3.68333	-13
3.69167	-12
3.70000	-12
3.70833	-12
3.71667	-9
3.72500	-9
3.73333	-9
3.74167	-12
3.75000	-13
3.75833	-14
3.76667	-15
3.77500	-15
3.78333	-15
3.79167	-17
3.80000	-16
3.80833	-14
3.81667	-14
3.82500	-13
3.83333	-14
3.84167	-14
3.85000	-13
3.85833	-13
3.86667	-14
3.87500	-16
3.88333	-20
3.89167	-21
3.90000	-21
3.90833	-20
3.91667	-17
3.92500	-16
3.93333	-15
3.94167	-13
3.95000	-13
3.95833	-14
3.96667	-16
3.97500	-17
3.98333	-18
3.99167	-18
4.00000	-16
4.00833	-16
4.01667	-16
4.02500	-16
4.03333	-14
4.04167	-11
4.05000	-11
4.05833	-11
4.06667	-10
4.07500	-10
4.08333	-9
4.09167	-8
4.10000	-8
4.10833	-8
4.11667	-9
4.12500	-9
4.13333	-10
4.14167	-9
4.15000	-10
4.15833	-11
4.16667	-13
4.17500	-13
4.18333	-13
4.19167	-9
4.20000	-5
4.20833	-4
4.21667	-3
4.22500	-1
4.23333	1
4.24167	3
4.25000	5
4.25833	3
4.26667	1
4.27500	-1
4.28333	-1
4.29167	-0
4.30000	1
4.30833	2
4.31667	2
4.32500	-0
4.33333	-3
4.34167	-4
4.35000	-2
4.35833	-0
4.36667	-0
4.37500	-0
4.38333	0
4.39167	0
4.40000	2
4.40833	3
4.41667	3
4.42500	3
4.43333	3
4.44167	3
4.45000	1
4.45833	1
4.46667	1
4.47500	1
4.48333	1
4.49167	1
4.50000	0
4.50833	1
4.51667	1
4.52500	2
4.53333	2
4.54167	1
4.55000	1
4.55833	2
4.56667	2
4.57500	3
4.58333	4
4.59167	5
4.60000	4
4.60833	1
4.61667	1
4.62500	2
4.63333	5
4.64167	6
4.65000	5
4.65833	4
4.66667	3
4.67500	2
4.68333	2
4.69167	3
4.70000	3
4.70833	1
4.71667	-0
4.72500	0
4.73333	-0
4.74167	1
4.75000	1
4.75833	1
4.76667	0
4.77500	1
4.78333	2
4.79167	2
4.80000	4
4.80833	6
4.81667	5
4.82500	3
4.83333	2
4.84167	2
4.85000	5
4.85833	7
4.86667	6
4.87500	7
4.88333	9
4.89167	9
4.90000	10
4.90833	10
4.91667	9
4.92500	8
4.93333	7
4.94167	6
4.95000	5
4.95833	7
4.96667	9
4.97500	10
4.98333	9
4.99167	6
5.00000	5
5.00833	8
5.01667	11
5.02500	11
5.03333	12
5.04167	13
5.05000	14
5.05833	14
5.06667	12
5.07500	9
5.08333	7
5.09167	7
5.10000	8
5.10833	8
5.11667	10
5.12500	10
5.13333	8
5.14167	8
5.15000	8
5.15833	10
5.16667	11
5.17500	11
5.18333	11
5.19167	15
5.20000	16
5.20833	17
5.21667	19
5.22500	21
5.23333	17
5.24167	15
5.25000	14
5.25833	12
5.26667	12
5.27500	12
5.28333	13
5.29167	13
5.30000	13
5.30833	14
5.31667	13
5.32500	13
5.33333	13
5.34167	12
5.35000	13
5.35833	15
5.36667	15
5.37500	17
5.38333	19
5.39167	20
5.40000	20
5.40833	18
5.41667	16
5.42500	17
5.43333	18
5.44167	19
5.45000	18
5.45833	15
5.46667	13
5.47500	12
5.48333	13
5.49167	14
5.50000	16
5.50833	18
5.51667	20
5.52500	21
5.53333	22
5.54167	20
5.55000	20
5.55833	19
5.56667	19
5.57500	19
5.58333	19
5.59167	21
5.60000	23
5.60833	24
5.61667	21
5.62500	20
5.63333	20
5.64167	18
5.65000	18
5.65833	20
5.66667	21
5.67500	20
5.68333	17
5.69167	16
5.70000	18
5.70833	19
5.71667	20
5.72500	22
5.73333	22
5.74167	21
5.75000	21
5.75833	23
5.76667	25
5.77500	27
5.78333	28
5.79167	29
5.80000	27
5.80833	28
5.81667	30
5.82500	31
5.83333	29
5.84167	27
5.85000	26
5.85833	29
5.86667	30
5.87500	29
5.88333	28
5.89167	29
5.90000	29
5.90833	28
5.91667	28
5.92500	28
5.93333	29
5.94167	30
5.95000	30
5.95833	31
5.96667	31
5.97500	32
5.98333	32
5.99167	31
6.00000	32
6.00833	32
6.01667	33
6.02500	33
6.03333	33
6.04167	33
6.05000	34
6.05833	36
6.06667	40
6.07500	40
6.08333	39
6.09167	39
6.10000	38
6.10833	37
6.11667	34
6.12500	31
6.13333	30
6.14167	30
6.15000	29
6.15833	29
6.16667	30
6.17500	31
6.18333	32
6.19167	32
6.20000	31
6.20833	33
6.21667	34
6.22500	35
6.23333	35
6.24167	35
6.25000	32
6.25833	30
6.26667	30
6.27500	32
6.28333	31
6.29167	30
6.30000	28
6.30833	27
6.31667	27
6.32500	29
6.33333	32
6.34167	32
6.35000	34
6.35833	36
6.36667	35
6.37500	36
6.38333	37
6.39167	36
6.40000	33
6.40833	31
6.41667	31
6.42500	32
6.43333	35
6.44167	35
6.45000	33
6.45833	32
6.46667	31
6.47500	31
6.48333	31
6.49167	31
6.50000	33
6.50833	33
6.51667	32
6.52500	30
6.53333	31
6.54167	34
6.55000	34
6.55833	32
6.56667	32
6.57500	32
6.58333	34
6.59167	36
6.60000	38
6.60833	37
6.61667	36
6.62500	36
6.63333	35
6.64167	37
6.65000	38
6.65833	38
6.66667	37
6.67500	37
6.68333	39
6.69167	41
6.70000	42
6.70833	38
6.71667	36
6.72500	37
6.73333	35
6.74167	34
6.75000	35
6.75833	36
6.76667	37
6.77500	38
6.78333	39
6.79167	38
6.80000	37
6.80833	37
6.81667	38
6.82500	39
6.83333	38
6.84167	37
6.85000	36
6.85833	35
6.86667	36
6.87500	37
6.88333	38
6.89167	39
6.90000	40
6.90833	42
6.91667	43
6.92500	42
6.93333	43
6.94167	42
6.95000	41
6.95833	41
6.96667	41
6.97500	41
6.98333	40
6.99167	42
7.00000	43
7.00833	43
7.01667	43
7.02500	43
7.03333	43
7.04167	43
7.05000	43
7.05833	42
7.06667	41
7.07500	42
7.08333	43
7.09167	41
7.10000	39
7.10833	37
7.11667	38
7.12500	39
7.13333	41
7.14167	42
7.15000	43
7.15833	41
7.16667	40
7.17500	39
7.18333	39
7.19167	41
7.20000	42
7.20833	42
7.21667	40
7.22500	40
7.23333	43
7.24167	42
7.25000	40
7.25833	39
7.26667	39
7.27500	39
7.28333	40
7.29167	41
7.30000	39
7.30833	37
7.31667	36
7.32500	37
7.33333	38
7.34167	39
7.35000	43
7.35833	44
7.36667	45
7.37500	44
7.38333	43
7.39167	40
7.40000	40
7.40833	37
7.41667	36
7.42500	35
7.43333	36
7.44167	37
7.45000	40
7.45833	41
7.46667	40
7.47500	42
7.48333	43
7.49167	44
7.50000	43
7.50833	43
7.51667	45
7.52500	45
7.53333	47
7.54167	47
7.55000	44
7.55833	42
7.56667	41
7.57500	42
7.58333	44
7.59167	43
7.60000	42
7.60833	41
7.61667	41
7.62500	42
7.63333	41
7.64167	41
7.65000	42
7.65833	42
7.66667	42
7.67500	42
7.68333	43
7.69167	43
7.70000	43
7.70833	42
7.71667	43
7.72500	44
7.73333	44
7.74167	46
7.75000	46
7.75833	47
7.76667	47
7.77500	45
7.78333	42
7.79167	41
7.80000	41
7.80833	43
7.81667	43
7.82500	42
7.83333	42
7.84167	41
7.85000	40
7.85833	38
7.86667	38
7.87500	40
7.88333	41
7.89167	43
7.90000	42
7.90833	39
7.91667	40
7.92500	42
7.93333	45
7.94167	45
7.95000	43
7.95833	42
7.96667	43
7.97500	45
7.98333	44
7.99167	44
8.00000	43
8.00833	42
8.01667	42
8.02500	43
8.03333	43
8.04167	42
8.05000	42
8.05833	43
8.06667	40
8.07500	38
8.08333	39
8.09167	40
8.10000	43
8.10833	47
8.11667	47
8.12500	45
8.13333	43
8.14167	42
8.15000	43
8.15833	45
8.16667	45
8.17500	45
8.18333	44
8.19167	43
8.20000	43
8.20833	45
8.21667	45
8.22500	45
8.23333	45
8.24167	45
8.25000	45
8.25833	46
8.26667	48
8.27500	47
8.28333	46
8.29167	45
8.30000	47
8.30833	49
8.31667	48
8.32500	46
8.33333	44
8.34167	42
8.35000	42
8.35833	44
8.36667	46
8.37500	47
8.38333	47
8.39167	46
8.40000	45
8.40833	47
8.41667	50
8.42500	51
8.43333	50
8.44167	48
8.45000	50
8.45833	50
8.46667	47
8.47500	46
8.48333	48
8.49167	50
8.50000	51
8.50833	51
8.51667	51
8.52500	52
8.53333	53
8.54167	52
8.55000	53
8.55833	54
8.56667	55
8.57500	56
8.58333	57
8.59167	57
8.60000	58
8.60833	57
8.61667	56
8.62500	56
8.63333	56
8.64167	60
8.65000	62
8.65833	61
8.66667	59
8.67500	59
8.68333	60
8.69167	60
8.70000	60
8.70833	59
8.71667	58
8.72500	60
8.73333	63
8.74167	65
8.75000	63
8.75833	62
8.76667	62
8.77500	63
8.78333	62
8.79167	63
8.80000	62
8.80833	61
8.81667	63
8.82500	63
8.83333	62
8.84167	63
8.85000	64
8.85833	64
8.86667	66
8.87500	67
8.88333	68
8.89167	66
8.90000	64
8.90833	63
8.91667	63
8.92500	64
8.93333	64
8.94167	65
8.95000	66
8.95833	67
8.96667	69
8.97500	70
8.98333	71
8.99167	69
9.00000	67
9.00833	68
9.01667	68
9.02500	68
9.03333	67
9.04167	67
9.05000	66
9.05833	68
9.06667	68
9.07500	66
9.08333	66
9.09167	66
9.10000	65
9.10833	66
9.11667	67
9.12500	70
9.13333	72
9.14167	75
9.15000	76
9.15833	74
9.16667	73
9.17500	73
9.18333	73
9.19167	71
9.20000	70
9.20833	73
9.21667	76
9.22500	76
9.23333	75
9.24167	76
9.25000	77
9.25833	78
9.26667	77
9.27500	75
9.28333	75
9.29167	76
9.30000	76
9.30833	75
9.31667	72
9.32500	72
9.33333	72
9.34167	72
9.35000	74
9.35833	76
9.36667	76
9.37500	76
9.38333	75
9.39167	74
9.40000	73
9.40833	74
9.41667	76
9.42500	77
9.43333	78
9.44167	80
9.45000	80
9.45833	82
9.46667	85
9.47500	89
9.48333	91
9.49167	93
9.50000	95
9.50833	95
9.51667	95
9.52500	95
9.53333	94
9.54167	92
9.55000	89
9.55833	90
9.56667	91
9.57500	93
9.58333	93
9.59167	95
9.60000	98
9.60833	99
9.61667	99
9.62500	97
9.63333	95
9.64167	97
9.65000	98
9.65833	99
9.66667	99
9.67500	99
9.68333	98
9.69167	97
9.70000	96
9.70833	97
9.71667	100
9.72500	101
9.73333	99
9.74167	96
9.75000	96
9.75833	98
9.76667	99
9.77500	99
9.78333	99
9.79167	100
9.80000	101
9.80833	100
9.81667	102
9.82500	103
9.83333	104
9.84167	103
9.85000	102
9.85833	100
9.86667	101
9.87500	103
9.88333	104
9.89167	103
9.90000	103
9.90833	102
9.91667	104
9.92500	105
9.93333	107
9.94167	108
9.95000	107
9.95833	106
9.96667	104
9.97500	104
9.98333	106
9.99167	107
10.00000	111
10.00833	111
10.01667	112
10.02500	109
10.03333	107
10.04167	108
10.05000	110
10.05833	109
10.06667	105
10.07500	103
10.08333	103
10.09167	104
10.10000	104
10.10833	105
10.11667	105
10.12500	106
10.13333	111
10.14167	112
10.15000	111
10.15833	109
10.16667	109
10.17500	109
10.18333	110
10.19167	110
10.20000	108
10.20833	106
10.21667	105
10.22500	107
10.23333	109
10.24167	110
10.25000	109
10.25833	108
10.26667	107
10.27500	105
10.28333	104
10.29167	105
10.30000	105
10.30833	106
10.31667	107
10.32500	107
10.33333	107
10.34167	106
10.35000	104
10.35833	104
10.36667	105
10.37500	107
10.38333	108
10.39167	107
10.40000	106
10.40833	105
10.41667	106
10.42500	109
10.43333	109
10.44167	109
10.45000	109
10.45833	110
10.46667	111
10.47500	113
10.48333	112
10.49167	112
10.50000	114
10.50833	114
10.51667	113
10.52500	115
10.53333	117
10.54167	121
10.55000	123
10.55833	124
10.56667	121
10.57500	119
10.58333	118
10.59167	118
10.60000	121
10.60833	122
10.61667	123
10.62500	123
10.63333	121
10.64167	121
10.65000	123
10.65833	123
10.66667	122
10.67500	123
10.68333	124
10.69167	123
10.70000	123
10.70833	120
10.71667	119
10.72500	119
10.73333	117
10.74167	116
10.75000	118
10.75833	119
10.76667	120
10.77500	122
10.78333	123
10.79167	126
10.80000	125
10.80833	125
10.81667	127
10.82500	129
10.83333	131
10.84167	131
10.85000	130
10.85833	127
10.86667	125
10.87500	125
10.88333	125
10.89167	126
10.90000	128
10.90833	128
10.91667	128
10.92500	130
10.93333	130
10.94167	130
10.95000	132
10.95833	132
10.96667	130
10.97500	129
10.98333	128
10.99167	127
11.00000	126
11.00833	128
11.01667	128
11.02500	128
11.03333	128
11.04167	127
11.05000	127
11.05833	127
11.06667	128
11.07500	129
11.08333	129
11.09167	130
11.10000	130
11.10833	129
11.11667	129
11.12500	129
11.13333	131
11.14167	135
11.15000	136
11.15833	137
11.16667	137
11.17500	136
11.18333	136
11.19167	137
11.20000	138
11.20833	134
11.21667	131
11.22500	130
11.23333	130
11.24167	130
11.25000	132
11.25833	131
11.26667	131
11.27500	130
11.28333	128
11.29167	128
11.30000	128
11.30833	127
11.31667	128
11.32500	130
11.33333	132
11.34167	135
11.35000	137
11.35833	137
11.36667	136
11.37500	133
11.38333	132
11.39167	133
11.40000	134
11.40833	133
11.41667	133
11.42500	133
11.43333	133
11.44167	132
11.45000	133
11.45833	134
11.46667	135
11.47500	137
11.48333	137
11.49167	136
11.50000	136
11.50833	136
11.51667	136
11.52500	137
11.53333	138
11.54167	138
11.55000	137
11.55833	137
11.56667	138
11.57500	138
11.58333	137
11.59167	137
11.60000	138
11.60833	139
11.61667	138
11.62500	136
11.63333	135
11.64167	137
11.65000	137
11.65833	138
11.66667	138
11.67500	138
11.68333	140
11.69167	146
11.70000	151
11.70833	154
11.71667	156
11.72500	159
11.73333	161
11.74167	161
11.75000	161
11.75833	162
11.76667	163
11.77500	166
11.78333	169
11.79167	170
11.80000	172
11.80833	174
11.81667	173
11.82500	172
11.83333	171
11.84167	172
11.85000	174
11.85833	175
11.86667	176
11.87500	175
11.88333	172
11.89167	171
11.90000	173
11.90833	174
11.91667	175
11.92500	175
11.93333	176
11.94167	177
11.95000	177
11.95833	176
11.96667	179
11.97500	181
11.98333	182
11.99167	180
12.00000	180
12.00833	180
12.01667	181
12.02500	183
12.03333	184
12.04167	183
12.05000	183
12.05833	184
12.06667	184
12.07500	182
12.08333	183
12.09167	182
12.10000	183
12.10833	183
12.11667	183
12.12500	182
12.13333	180
12.14167	182
12.15000	184
12.15833	183
12.16667	185
12.17500	185
12.18333	183
12.19167	182
12.20000	182
12.20833	183
12.21667	183
12.22500	184
12.23333	185
12.24167	186
12.25000	186
12.25833	184
12.26667	180
12.27500	177
12.28333	177
12.29167	178
12.30000	179
12.30833	180
12.31667	184
12.32500	189
12.33333	193
12.34167	197
12.35000	196
12.35833	193
12.36667	189
12.37500	188
12.38333	189
12.39167	191
12.40000	193
12.40833	194
12.41667	195
12.42500	197
12.43333	201
12.44167	202
12.45000	199
12.45833	198
12.46667	197
12.47500	196
12.48333	197
12.49167	198
12.50000	198
12.50833	200
12.51667	200
12.52500	200
12.53333	200
12.54167	201
12.55000	198
12.55833	197
12.56667	198
12.57500	202
12.58333	202
12.59167	201
12.60000	202
12.60833	202
12.61667	204
12.62500	206
12.63333	209
12.64167	211
12.65000	213
12.65833	211
12.66667	208
12.67500	205
12.68333	207
12.69167	209
12.70000	210
12.70833	212
12.71667	212
12.72500	211
12.73333	209
12.74167	209
12.75000	210
12.75833	211
12.76667	211
12.77500	207
12.78333	205
12.79167	204
12.80000	207
12.80833	209
12.81667	211
12.82500	210
12.83333	212
12.84167	215
12.85000	216
12.85833	218
12.86667	220
12.87500	221
12.88333	221
12.89167	219
12.90000	219
12.90833	218
12.91667	218
12.92500	221
12.93333	220
12.94167	217
12.95000	216
12.95833	218
12.96667	220
12.97500	220
12.98333	222
12.99167	223
13.00000	225
13.00833	224
13.01667	224
13.02500	224
13.03333	225
13.04167	227
13.05000	229
13.05833	230
13.06667	232
13.07500	234
13.08333	234
13.09167	233
13.10000	234
13.10833	234
13.11667	235
13.12500	237
13.13333	238
13.14167	239
13.15000	241
13.15833	243
13.16667	243
13.17500	241
13.18333	240
13.19167	241
13.20000	242
13.20833	242
13.21667	245
13.22500	248
13.23333	251
13.24167	253
13.25000	254
13.25833	254
13.26667	255
13.27500	257
13.28333	258
13.29167	260
13.30000	263
13.30833	266
13.31667	269
13.32500	272
13.33333	273
13.34167	274
13.35000	275
13.35833	278
13.36667	282
13.37500	287
13.38333	292
13.39167	298
13.40000	303
13.40833	306
13.41667	308
13.42500	308
13.43333	309
13.44167	312
13.45000	314
13.45833	317
13.46667	322
13.47500	330
13.48333	335
13.49167	339
13.50000	344
13.50833	350
13.51667	355
13.52500	361
13.53333	367
13.54167	373
13.55000	378
13.55833	382
13.56667	385
13.57500	388
13.58333	394
13.59167	404
13.60000	414
13.60833	424
13.61667	433
13.62500	440
13.63333	446
13.64167	454
13.65000	462
13.65833	472
13.66667	481
13.67500	489
13.68333	498
13.69167	508
13.70000	516
13.70833	525
13.71667	537
13.72500	547
13.73333	556
13.74167	567
13.75000	578
13.75833	589
13.76667	601
13.77500	613
13.78333	625
13.79167	639
13.80000	653
13.80833	667
13.81667	680
13.82500	695
13.83333	711
13.84167	726
13.85000	742
13.85833	760
13.86667	777
13.87500	794
13.88333	809
13.89167	825
13.90000	843
13.90833	864
13.91667	884
13.92500	905
13.93333	926
13.94167	945
13.95000	967
13.95833	988
13.96667	1009
13.97500	1030
13.98333	1052
13.99167	1074
14.00000	1098
14.00833	1121
14.01667	1144
14.02500	1168
14.03333	1193
14.04167	1218
14.05000	1245
14.05833	1273
14.06667	1300
14.07500	1327
14.08333	1354
14.09167	1384
14.10000	1412
14.10833	1440
14.11667	1469
14.12500	1500
14.13333	1532
14.14167	1561
14.15000	1587
14.15833	1617
14.16667	1647
14.17500	1679
14.18333	1711
14.19167	1743
14.20000	1775
14.20833	1810
14.21667	1843
14.22500	1875
14.23333	1908
14.24167	1941
14.25000	1973
14.25833	2006
14.26667	2040
14.27500	2072
14.28333	2105
14.29167	2138
14.30000	2172
14.30833	2207
14.31667	2243
14.32500	2278
14.33333	2312
14.34167	2347
14.35000	2382
14.35833	2418
14.36667	2456
14.37500	2493
14.38333	2528
14.39167	2564
14.40000	2599
14.40833	2635
14.41667	2671
14.42500	2706
14.43333	2742
14.44167	2777
14.45000	2810
14.45833	2845
14.46667	2882
14.47500	2919
14.48333	2955
14.49167	2991
14.50000	3026
14.50833	3063
14.51667	3100
14.52500	3136
14.53333	3173
14.54167	3209
14.55000	3245
14.55833	3282
14.56667	3317
14.57500	3351
14.58333	3386
14.59167	3420
14.60000	3455
14.60833	3490
14.61667	3523
14.62500	3556
14.63333	3587
14.64167	3620
14.65000	3655
14.65833	3691
14.66667	3727
14.67500	3762
14.68333	3796
14.69167	3831
14.70000	3865
14.70833	3900
14.71667	3936
14.72500	3971
14.73333	4004
14.74167	4036
14.75000	4069
14.75833	4103
14.76667	4139
14.77500	4176
14.78333	4214
14.79167	4249
14.80000	4283
14.80833	4316
14.81667	4349
14.82500	4384
14.83333	4419
14.84167	4453
14.85000	4486
14.85833	4518
14.86667	4552
14.87500	4586
14.88333	4623
14.89167	4660
14.90000	4695
14.90833	4728
14.91667	4761
14.92500	4796
14.93333	4831
14.94167	4866
14.95000	4901
14.95833	4937
14.96667	4970
14.97500	5000
14.98333	5030
14.99167	5063
15.00000	5098
15.00833	5131
15.01667	5165
15.02500	5201
15.03333	5233
15.04167	5262
15.05000	5295
15.05833	5331
15.06667	5367
15.07500	5402
15.08333	5434
15.09167	5466
15.10000	5499
15.10833	5530
15.11667	5561
15.12500	5593
15.13333	5626
15.14167	5658
15.15000	5689
15.15833	5720
15.16667	5749
15.17500	5778
15.18333	5807
15.19167	5836
15.20000	5866
15.20833	5897
15.21667	5929
15.22500	5958
15.23333	5987
15.24167	6016
15.25000	6042
15.25833	6069
15.26667	6096
15.27500	6122
15.28333	6148
15.29167	6173
15.30000	6199
15.30833	6225
15.31667	6250
15.32500	6274
15.33333	6297
15.34167	6321
15.35000	6348
15.35833	6373
15.36667	6397
15.37500	6419
15.38333	6442
15.39167	6463
15.40000	6485
15.40833	6508
15.41667	6528
15.42500	6547
15.43333	6564
15.44167	6584
15.45000	6604
15.45833	6621
15.46667	6638
15.47500	6654
15.48333	6670
15.49167	6686
15.50000	6702
15.50833	6717
15.51667	6735
15.52500	6752
15.53333	6768
15.54167	6783
15.55000	6796
15.55833	6810
15.56667	6824
15.57500	6838
15.58333	6855
15.59167	6870
15.60000	6883
15.60833	6896
15.61667	6907
15.62500	6919
15.63333	6931
15.64167	6942
15.65000	6951
15.65833	6960
15.66667	6969
15.67500	6976
15.68333	6986
15.69167	6996
15.70000	7004
15.70833	7011
15.71667	7018
15.72500	7024
15.73333	7032
15.74167	7040
15.75000	7044
15.75833	7048
15.76667	7054
15.77500	7058
15.78333	7062
15.79167	7066
15.80000	7069
15.80833	7071
15.81667	7075
15.82500	7078
15.83333	7081
15.84167	7084
15.85000	7086
15.85833	7087
15.86667	7087
15.87500	7085
15.88333	7084
15.89167	7085
15.90000	7087
15.90833	7086
15.91667	7086
15.92500	7084
15.93333	7080
15.94167	7078
15.95000	7079
15.95833	7077
15.96667	7073
15.97500	7070
15.98333	7068
15.99167	7064
16.00000	7061
16.00833	7057
16.01667	7053
16.02500	7048
16.03333	7044
16.04167	7041
16.05000	7036
16.05833	7030
16.06667	7022
16.07500	7017
16.08333	7011
16.09167	7004
16.10000	6997
16.10833	6991
16.11667	6986
16.12500	6980
16.13333	6972
16.14167	6965
16.15000	6958
16.15833	6949
16.16667	6941
16.17500	6933
16.18333	6922
16.19167	6913
16.20000	6906
16.20833	6899
16.21667	6889
16.22500	6877
16.23333	6865
16.24167	6854
16.25000	6846
16.25833	6836
16.26667	6825
16.27500	6815
16.28333	6805
16.29167	6795
16.30000	6786
16.30833	6775
16.31667	6762
16.32500	6749
16.33333	6738
16.34167	6727
16.35000	6717
16.35833	6707
16.36667	6693
16.37500	6679
16.38333	6666
16.39167	6653
16.40000	6640
16.40833	6631
16.41667	6622
16.42500	6610
16.43333	6597
16.44167	6585
16.45000	6574
16.45833	6562
16.46667	6549
16.47500	6535
16.48333	6521
16.49167	6508
16.50000	6494
16.50833	6480
16.51667	6465
16.52500	6452
16.53333	6440
16.54167	6425
16.55000	6408
16.55833	6395
16.56667	6381
16.57500	6365
16.58333	6350
16.59167	6335
16.60000	6321
16.60833	6307
16.61667	6295
16.62500	6282
16.63333	6266
16.64167	6251
16.65000	6236
16.65833	6223
16.66667	6210
16.67500	6195
16.68333	6178
16.69167	6161
16.70000	6143
16.70833	6129
16.71667	6113
16.72500	6098
16.73333	6083
16.74167	6067
16.75000	6051
16.75833	6035
16.76667	6020
16.77500	6005
16.78333	5989
16.79167	5972
16.80000	5955
16.80833	5938
16.81667	5921
16.82500	5906
16.83333	5890
16.84167	5875
16.85000	5860
16.85833	5845
16.86667	5828
16.87500	5813
16.88333	5799
16.89167	5784
16.90000	5768
16.90833	5751
16.91667	5734
16.92500	5717
16.93333	5702
16.94167	5686
16.95000	5670
16.95833	5655
16.96667	5638
16.97500	5622
16.98333	5607
16.99167	5591
17.00000	5573
17.00833	5554
17.01667	5538
17.02500	5523
17.03333	5510
17.04167	5494
17.05000	5478
17.05833	5464
17.06667	5450
17.07500	5437
17.08333	5422
17.09167	5405
17.10000	5388
17.10833	5372
17.11667	5356
17.12500	5341
17.13333	5325
17.14167	5309
17.15000	5294
17.15833	5277
17.16667	5261
17.17500	5247
17.18333	5233
17.19167	5217
17.20000	5201
17.20833	5185
17.21667	5168
17.22500	5150
17.23333	5132
17.24167	5116
17.25000	5103
17.25833	5090
17.26667	5075
17.27500	5061
17.28333	5048
17.29167	5033
17.30000	5020
17.30833	5008
17.31667	4996
17.32500	4983
17.33333	4968
17.34167	4952
17.35000	4937
17.35833	4922
17.36667	4908
17.37500	4893
17.38333	4879
17.39167	4866
17.40000	4854
17.40833	4839
17.41667	4825
17.42500	4811
17.43333	4798
17.44167	4784
17.45000	4767
17.45833	4751
17.46667	4737
17.47500	4722
17.48333	4709
17.49167	4696
17.50000	4684
17.50833	4672
17.51667	4659
17.52500	4645
17.53333	4632
17.54167	4615
17.55000	4600
17.55833	4584
17.56667	4568
17.57500	4554
17.58333	4543
17.59167	4530
17.60000	4516
17.60833	4503
17.61667	4488
17.62500	4471
17.63333	4455
17.64167	4445
17.65000	4433
17.65833	4420
17.66667	4406
17.67500	4391
17.68333	4377
17.69167	4365
17.70000	4353
17.70833	4340
17.71667	4327
17.72500	4315
17.73333	4301
17.74167	4288
17.75000	4276
17.75833	4263
17.76667	4249
17.77500	4236
17.78333	4224
17.79167	4211
17.80000	4198
17.80833	4185
17.81667	4170
17.82500	4155
17.83333	4142
17.84167	4132
17.85000	4119
17.85833	4105
17.86667	4093
17.87500	4081
17.88333	4068
17.89167	4055
17.90000	4040
17.90833	4030
17.91667	4019
17.92500	4010
17.93333	3999
17.94167	3988
17.95000	3975
17.95833	3960
17.96667	3946
17.97500	3933
17.98333	3920
17.99167	3909
18.00000	3900
18.00833	3889
18.01667	3878
18.02500	3867
18.03333	3856
18.04167	3844
18.05000	3833
18.05833	3822
18.06667	3809
18.07500	3794
18.08333	3780
18.09167	3768
18.10000	3755
18.10833	3743
18.11667	3730
18.12500	3718
18.13333	3708
18.14167	3699
18.15000	3690
18.15833	3680
18.16667	3669
18.17500	3659
18.18333	3647
18.19167	3636
18.20000	3626
18.20833	3615
18.21667	3605
18.22500	3595
18.23333	3583
18.24167	3571
18.25000	3561
18.25833	3549
18.26667	3540
18.27500	3531
18.28333	3523
18.29167	3513
18.30000	3501
18.30833	3488
18.31667	3475
18.32500	3464
18.33333	3454
18.34167	3445
18.35000	3434
18.35833	3422
18.36667	3410
18.37500	3400
18.38333	3391
18.39167	3382
18.40000	3373
18.40833	3364
18.41667	3353
18.42500	3343
18.43333	3334
18.44167	3324
18.45000	3314
18.45833	3302
18.46667	3290
18.47500	3278
18.48333	3269
18.49167	3259
18.50000	3249
18.50833	3238
18.51667	3231
18.52500	3223
18.53333	3215
18.54167	3206
18.55000	3195
18.55833	3184
18.56667	3176
18.57500	3166
18.58333	3155
18.59167	3144
18.60000	3136
18.60833	3125
18.61667	3114
18.62500	3105
18.63333	3094
18.64167	3084
18.65000	3075
18.65833	3067
18.66667	3058
18.67500	3050
18.68333	3042
18.69167	3030
18.70000	3019
18.70833	3008
18.71667	2998
18.72500	2988
18.73333	2979
18.74167	2971
18.75000	2960
18.75833	2949
18.76667	2939
18.77500	2930
18.78333	2920
18.79167	2910
18.80000	2903
18.80833	2896
18.81667	2889
18.82500	2880
18.83333	2868
18.84167	2857
18.85000	2846
18.85833	2837
18.86667	2828
18.87500	2820
18.88333	2809
18.89167	2800
18.90000	2791
18.90833	2783
18.91667	2773
18.92500	2762
18.93333	2751
18.94167	2741
18.95000	2731
18.95833	2720
18.96667	2711
18.97500	2702
18.98333	2692
18.99167	2682
19.00000	2672
19.00833	2664
19.01667	2654
19.02500	2644
19.03333	2634
19.04167	2625
19.05000	2615
19.05833	2605
19.06667	2596
19.07500	2586
19.08333	2577
19.09167	2567
19.10000	2556
19.10833	2547
19.11667	2539
19.12500	2531
19.13333	2521
19.14167	2513
19.15000	2507
19.15833	2499
19.16667	2487
19.17500	2475
19.18333	2465
19.19167	2458
19.20000	2451
19.20833	2443
19.21667	2432
19.22500	2422
19.23333	2413
19.24167	2404
19.25000	2394
19.25833	2384
19.26667	2375
19.27500	2365
19.28333	2357
19.29167	2348
19.30000	2341
19.30833	2332
19.31667	2323
19.32500	2313
19.33333	2303
19.34167	2292
19.35000	2282
19.35833	2273
19.36667	2264
19.37500	2255
19.38333	2245
19.39167	2235
19.40000	2228
19.40833	2222
19.41667	2215
19.42500	2206
19.43333	2196
19.44167	2187
19.45000	2178
19.45833	2167
19.46667	2158
19.47500	2147
19.48333	2138
19.49167	2131
19.50000	2124
19.50833	2116
19.51667	2108
19.52500	2101
19.53333	2091
19.54167	2082
19.55000	2073
19.55833	2068
19.56667	2064
19.57500	2058
19.58333	2050
19.59167	2042
19.60000	2034
19.60833	2026
19.61667	2018
19.62500	2011
19.63333	2005
19.64167	1999
19.65000	1990
19.65833	1980
19.66667	1970
19.67500	1961
19.68333	1954
19.69167	1949
19.70000	1944
19.70833	1938
19.71667	1932
19.72500	1926
19.73333	1917
19.74167	1910
19.75000	1903
19.75833	1896
19.76667	1890
19.77500	1882
19.78333	1875
19.79167	1867
19.80000	1860
19.80833	1853
19.81667	1847
19.82500	1840
19.83333	1832
19.84167	1824
19.85000	1815
19.85833	1808
19.86667	1799
19.87500	1791
19.88333	1786
19.89167	1781
19.90000	1777
19.90833	1772
19.91667	1766
19.92500	1761
19.93333	1753
19.94167	1744
19.95000	1737
19.95833	1732
19.96667	1725
19.97500	1719
19.98333	1711
19.99167	1704
20.00000	1697
20.00833	1690
20.01667	1682
20.02500	1675
20.03333	1670
20.04167	1666
20.05000	1661
20.05833	1655
20.06667	1650
20.07500	1644
20.08333	1640
20.09167	1634
20.10000	1628
20.10833	1621
20.11667	1615
20.12500	1609
20.13333	1600
20.14167	1594
20.15000	1589
20.15833	1584
20.16667	1577
20.17500	1570
20.18333	1564
20.19167	1560
20.20000	1556
20.20833	1548
20.21667	1542
20.22500	1535
20.23333	1529
20.24167	1521
20.25000	1514
20.25833	1507
20.26667	1499
20.27500	1493
20.28333	1486
20.29167	1477
20.30000	1469
20.30833	1464
20.31667	1457
20.32500	1447
20.33333	1440
20.34167	1434
20.35000	1427
20.35833	1420
20.36667	1414
20.37500	1408
20.38333	1401
20.39167	1395
20.40000	1388
20.40833	1379
20.41667	1368
20.42500	1358
20.43333	1351
20.44167	1345
20.45000	1338
20.45833	1330
20.46667	1320
20.47500	1311
20.48333	1302
20.49167	1293
20.50000	1286
20.50833	1276
20.51667	1269
20.52500	1263
20.53333	1257
20.54167	1251
20.55000	1244
20.55833	1237
20.56667	1231
20.57500	1222
20.58333	1215
20.59167	1210
20.60000	1204
20.60833	1199
20.61667	1193
20.62500	1189
20.63333	1185
20.64167	1182
20.65000	1177
20.65833	1173
20.66667	1171
20.67500	1169
20.68333	1166
20.69167	1162
20.70000	1159
20.70833	1157
20.71667	1156
20.72500	1157
20.73333	1158
20.74167	1157
20.75000	1155
20.75833	1153
20.76667	1153
20.77500	1155
20.78333	1155
20.79167	1157
20.80000	1159
20.80833	1161
20.81667	1160
20.82500	1163
20.83333	1166
20.84167	1170
20.85000	1173
20.85833	1178
20.86667	1183
20.87500	1188
20.88333	1193
20.89167	1197
20.90000	1202
20.90833	1208
20.91667	1214
20.92500	1221
20.93333	1227
20.94167	1233
20.95000	1239
20.95833	1249
20.96667	1258
20.97500	1263
20.98333	1270
20.99167	1277
21.00000	1281
21.00833	1287
21.01667	1291
21.02500	1297
21.03333	1302
21.04167	1307
21.05000	1312
21.05833	1315
21.06667	1318
21.07500	1319
21.08333	1319
21.09167	1320
21.10000	1320
21.10833	1318
21.11667	1316
21.12500	1313
21.13333	1308
21.14167	1300
21.15000	1292
21.15833	1285
21.16667	1276
21.17500	1265
21.18333	1251
21.19167	1237
21.20000	1223
21.20833	1206
21.21667	1187
21.22500	1167
21.23333	1150
21.24167	1135
21.25000	1118
21.25833	1100
21.26667	1081
21.27500	1062
21.28333	1041
21.29167	1020
21.30000	999
21.30833	977
21.31667	953
21.32500	933
21.33333	914
21.34167	894
21.35000	875
21.35833	856
21.36667	836
21.37500	820
21.38333	804
21.39167	787
21.40000	771
21.40833	758
21.41667	745
21.42500	735
21.43333	724
21.44167	715
21.45000	706
21.45833	696
21.46667	689
21.47500	682
21.48333	674
21.49167	667
21.50000	662
21.50833	657
21.51667	651
21.52500	645
21.53333	642
21.54167	639
21.55000	640
21.55833	641
21.56667	638
21.57500	634
21.58333	631
21.59167	630
21.60000	628
21.60833	626
21.61667	622
21.62500	619
21.63333	617
21.64167	616
21.65000	612
21.65833	607
21.66667	602
21.67500	598
21.68333	595
21.69167	592
21.70000	588
21.70833	584
21.71667	578
21.72500	572
21.73333	565
21.74167	559
21.75000	555
21.75833	550
21.76667	544
21.77500	535
21.78333	528
21.79167	523
21.80000	520
21.80833	515
21.81667	511
21.82500	505
21.83333	496
21.84167	491
21.85000	485
21.85833	480
21.86667	473
21.87500	468
21.88333	462
21.89167	456
21.90000	455
21.90833	454
21.91667	449
21.92500	444
21.93333	440
21.94167	437
21.95000	435
21.95833	434
21.96667	433
21.97500	432
21.98333	433
21.99167	433
22.00000	434
22.00833	434
22.01667	435
22.02500	437
22.03333	436
22.04167	435
22.05000	436
22.05833	438
22.06667	439
22.07500	437
22.08333	437
22.09167	438
22.10000	441
22.10833	443
22.11667	445
22.12500	445
22.13333	448
22.14167	451
22.15000	454
22.15833	455
22.16667	456
22.17500	455
22.18333	457
22.19167	459
22.20000	462
22.20833	464
22.21667	468
22.22500	472
22.23333	475
22.24167	476
22.25000	479
22.25833	480
22.26667	479
22.27500	481
22.28333	485
22.29167	488
22.30000	490
22.30833	494
22.31667	497
22.32500	500
22.33333	504
22.34167	510
22.35000	515
22.35833	518
22.36667	519
22.37500	521
22.38333	525
22.39167	530
22.40000	535
22.40833	539
22.41667	544
22.42500	551
22.43333	556
22.44167	560
22.45000	566
22.45833	575
22.46667	583
22.47500	590
22.48333	596
22.49167	605
22.50000	615
22.50833	623
22.51667	633
22.52500	644
22.53333	656
22.54167	669
22.55000	684
22.55833	696
22.56667	707
22.57500	720
22.58333	733
22.59167	745
22.60000	754
22.60833	764
22.61667	774
22.62500	784
22.63333	793
22.64167	802
22.65000	812
22.65833	820
22.66667	827
22.67500	832
22.68333	836
22.69167	841
22.70000	846
22.70833	851
22.71667	855
22.72500	857
22.73333	858
22.74167	857
22.75000	854
22.75833	851
22.76667	848
22.77500	844
22.78333	840
22.79167	834
22.80000	829
22.80833	825
22.81667	820
22.82500	814
22.83333	807
22.84167	802
22.85000	799
22.85833	794
22.86667	789
22.87500	782
22.88333	777
22.89167	770
22.90000	764
22.90833	759
22.91667	754
22.92500	749
22.93333	743
22.94167	736
22.95000	730
22.95833	726
22.96667	724
22.97500	722
22.98333	721
22.99167	718
23.00000	716
23.00833	714
23.01667	713
23.02500	711
23.03333	712
23.04167	714
23.05000	713
23.05833	715
23.06667	718
23.07500	722
23.08333	723
23.09167	725
23.10000	730
23.10833	734
23.11667	737
23.12500	742
23.13333	746
23.14167	753
23.15000	761
23.15833	764
23.16667	767
23.17500	771
23.18333	777
23.19167	782
23.20000	788
23.20833	792
23.21667	796
23.22500	800
23.23333	806
23.24167	812
23.25000	816
23.25833	820
23.26667	823
23.27500	826
23.28333	828
23.29167	828
23.30000	829
23.30833	828
23.31667	828
23.32500	826
23.33333	823
23.34167	817
23.35000	812
23.35833	807
23.36667	800
23.37500	794
23.38333	784
23.39167	774
23.40000	763
23.40833	752
23.41667	742
23.42500	728
23.43333	713
23.44167	700
23.45000	687
23.45833	673
23.46667	658
23.47500	643
23.48333	629
23.49167	616
23.50000	604
23.50833	592
23.51667	579
23.52500	567
23.53333	559
23.54167	551
23.55000	543
23.55833	537
23.56667	531
23.57500	526
23.58333	519
23.59167	515
23.60000	513
23.60833	512
23.61667	512
23.62500	513
23.63333	515
23.64167	515
23.65000	516
23.65833	515
23.66667	516
23.67500	516
23.68333	515
23.69167	514
23.70000	517
23.70833	520
23.71667	525
23.72500	528
23.73333	530
23.74167	531
23.75000	532
23.75833	534
23.76667	535
23.77500	537
23.78333	537
23.79167	536
23.80000	535
23.80833	534
23.81667	533
23.82500	531
23.83333	531
23.84167	532
23.85000	531
23.85833	532
23.86667	535
23.87500	536
23.88333	535
23.89167	533
23.90000	533
23.90833	536
23.91667	537
23.92500	537
23.93333	537
23.94167	537
23.95000	536
23.95833	537
23.96667	537
23.97500	537
23.98333	537
23.99167	540
24.00000	542
24.00833	543
24.01667	544
24.02500	543
24.03333	545
24.04167	546
24.05000	546
24.05833	546
24.06667	547
24.07500	548
24.08333	549
24.09167	550
24.10000	551
24.10833	553
24.11667	554
24.12500	555
24.13333	556
24.14167	556
24.15000	556
24.15833	558
24.16667	559
24.17500	558
24.18333	558
24.19167	559
24.20000	559
24.20833	560
24.21667	558
24.22500	558
24.23333	556
24.24167	554
24.25000	553
24.25833	552
24.26667	553
24.27500	554
24.28333	555
24.29167	554
24.30000	552
24.30833	550
24.31667	550
24.32500	549
24.33333	545
24.34167	542
24.35000	539
24.35833	537
24.36667	534
24.37500	533
24.38333	531
24.39167	527
24.40000	524
24.40833	520
24.41667	516
24.42500	512
24.43333	508
24.44167	504
24.45000	502
24.45833	500
24.46667	495
24.47500	492
24.48333	490
24.49167	487
24.50000	484
24.50833	479
24.51667	475
24.52500	472
24.53333	471
24.54167	468
24.55000	464
24.55833	461
24.56667	456
24.57500	452
24.58333	449
24.59167	445
24.60000	444
24.60833	449
24.61667	457
24.62500	463
24.63333	465
24.64167	467
24.65000	466
24.65833	464
24.66667	461
24.67500	459
24.68333	456
24.69167	452
24.70000	449
24.70833	446
24.71667	445
24.72500	443
24.73333	442
24.74167	441
24.75000	441
24.75833	439
24.76667	438
24.77500	437
24.78333	435
24.79167	432
24.80000	431
24.80833	434
24.81667	433
24.82500	430
24.83333	430
24.84167	432
24.85000	434
24.85833	433
24.86667	432
24.87500	429
24.88333	429
24.89167	427
24.90000	427
24.90833	428
24.91667	431
24.92500	433
24.93333	432
24.94167	432
24.95000	433
24.95833	432
24.96667	432
24.97500	432
24.98333	433
24.99167	435
25.00000	438
25.00833	443
25.01667	448
25.02500	451
25.03333	453
25.04167	454
25.05000	456
25.05833	458
25.06667	460
25.07500	461
25.08333	465
25.09167	471
25.10000	475
25.10833	481
25.11667	486
25.12500	489
25.13333	494
25.14167	500
25.15000	506
25.15833	513
25.16667	519
25.17500	527
25.18333	533
25.19167	540
25.20000	546
25.20833	552
25.21667	556
25.22500	560
25.23333	565
25.24167	571
25.25000	579
25.25833	584
25.26667	587
25.27500	591
25.28333	595
25.29167	598
25.30000	604
25.30833	610
25.31667	616
25.32500	623
25.33333	629
25.34167	633
25.35000	634
25.35833	635
25.36667	640
25.37500	644
25.38333	647
25.39167	651
25.40000	653
25.40833	653
25.41667	654
25.42500	658
25.43333	661
25.44167	662
25.45000	662
25.45833	663
25.46667	659
25.47500	655
25.48333	654
25.49167	654
25.50000	654
25.50833	653
25.51667	652
25.52500	650
25.53333	647
25.54167	646
25.55000	646
25.55833	643
25.56667	637
25.57500	632
25.58333	628
25.59167	624
25.60000	621
25.60833	619
25.61667	615
25.62500	610
25.63333	606
25.64167	601
25.65000	597
25.65833	593
25.66667	590
25.67500	587
25.68333	587
25.69167	587
25.70000	585
25.70833	583
25.71667	580
25.72500	576
25.73333	573
25.74167	569
25.75000	567
25.75833	565
25.76667	562
25.77500	560
25.78333	559
25.79167	558
25.80000	558
25.80833	558
25.81667	557
25.82500	555
25.83333	552
25.84167	551
25.85000	550
25.85833	547
25.86667	543
25.87500	541
25.88333	539
25.89167	537
25.90000	536
25.90833	535
25.91667	534
25.92500	531
25.93333	528
25.94167	527
25.95000	527
25.95833	528
25.96667	528
25.97500	527
25.98333	523
25.99167	522
26.00000	524
26.00833	524
26.01667	524
26.02500	524
26.03333	525
26.04167	526
26.05000	524
26.05833	521
26.06667	519
26.07500	522
26.08333	522
26.09167	523
26.10000	524
26.10833	525
26.11667	524
26.12500	522
26.13333	518
26.14167	515
26.15000	514
26.15833	514
26.16667	512
26.17500	511
26.18333	511
26.19167	513
26.20000	513
26.20833	513
26.21667	513
26.22500	512
26.23333	511
26.24167	510
26.25000	510
26.25833	507
26.26667	506
26.27500	506
26.28333	503
26.29167	501
26.30000	500
26.30833	500
26.31667	500
26.32500	498
26.33333	496
26.34167	494
26.35000	494
26.35833	490
26.36667	487
26.37500	485
26.38333	484
26.39167	484
26.40000	483
26.40833	480
26.41667	478
26.42500	479
26.43333	481
26.44167	480
26.45000	478
26.45833	476
26.46667	475
26.47500	474
26.48333	473
26.49167	471
26.50000	468
26.50833	468
26.51667	469
26.52500	468
26.53333	465
26.54167	464
26.55000	466
26.55833	466
26.56667	464
26.57500	462
26.58333	460
26.59167	461
26.60000	463
26.60833	464
26.61667	464
26.62500	463
26.63333	461
26.64167	460
26.65000	461
26.65833	460
26.66667	459
26.67500	458
26.68333	456
26.69167	453
26.70000	452
26.70833	452
26.71667	452
26.72500	452
26.73333	448
26.74167	445
26.75000	443
26.75833	441
26.76667	440
26.77500	440
26.78333	440
26.79167	438
26.80000	433
26.80833	432
26.81667	433
26.82500	431
26.83333	429
26.84167	428
26.85000	428
26.85833	426
26.86667	425
26.87500	422
26.88333	421
26.89167	421
26.90000	420
26.90833	420
26.91667	419
26.92500	416
26.93333	414
26.94167	412
26.95000	410
26.95833	409
26.96667	408
26.97500	406
26.98333	402
26.99167	399
27.00000	399
27.00833	399
27.01667	399
27.02500	399
27.03333	398
27.04167	396
27.05000	395
27.05833	398
27.06667	398
27.07500	397
27.08333	395
27.09167	393
27.10000	391
27.10833	390
27.11667	391
27.12500	392
27.13333	391
27.14167	389
27.15000	390
27.15833	388
27.16667	388
27.17500	390
27.18333	391
27.19167	388
27.20000	386
27.20833	384
27.21667	383
27.22500	383
27.23333	384
27.24167	381
27.25000	379
27.25833	376
27.26667	376
27.27500	375
27.28333	375
27.29167	375
27.30000	373
27.30833	372
27.31667	372
27.32500	371
27.33333	369
27.34167	368
27.35000	369
27.35833	370
27.36667	371
27.37500	371
27.38333	372
27.39167	375
27.40000	376
27.40833	374
27.41667	372
27.42500	371
27.43333	372
27.44167	373
27.45000	372
27.45833	373
27.46667	374
27.47500	375
27.48333	375
27.49167	375
27.50000	376
27.50833	377
27.51667	376
27.52500	376
27.53333	379
27.54167	383
27.55000	385
27.55833	388
27.56667	392
27.57500	397
27.58333	400
27.59167	405
27.60000	412
27.60833	418
27.61667	428
27.62500	438
27.63333	445
27.64167	452
27.65000	464
27.65833	479
27.66667	495
27.67500	513
27.68333	531
27.69167	550
27.70000	568
27.70833	591
27.71667	617
27.72500	647
27.73333	681
27.74167	720
27.75000	763
27.75833	809
27.76667	857
27.77500	910
27.78333	968
27.79167	1031
27.80000	1099
27.80833	1173
27.81667	1252
27.82500	1334
27.83333	1422
27.84167	1516
27.85000	1619
27.85833	1725
27.86667	1836
27.87500	1951
27.88333	2070
27.89167	2197
27.90000	2330
27.90833	2469
27.91667	2614
27.92500	2763
27.93333	2914
27.94167	3070
27.95000	3229
27.95833	3390
27.96667	3553
27.97500	3717
27.98333	3885
27.99167	4051
28.00000	4216
28.00833	4379
28.01667	4541
28.02500	4701
28.03333	4856
28.04167	5004
28.05000	5145
28.05833	5281
28.06667	5412
28.07500	5537
28.08333	5654
28.09167	5762
28.10000	5859
28.10833	5947
28.11667	6022
28.12500	6085
28.13333	6135
28.14167	6174
28.15000	6202
28.15833	6216
28.16667	6217
28.17500	6208
28.18333	6187
28.19167	6151
28.20000	6104
28.20833	6044
28.21667	5973
28.22500	5890
28.23333	5797
28.24167	5696
28.25000	5585
28.25833	5465
28.26667	5337
28.27500	5205
28.28333	5066
28.29167	4919
28.30000	4767
28.30833	4611
28.31667	4455
28.32500	4296
28.33333	4136
28.34167	3975
28.35000	3814
28.35833	3654
28.36667	3494
28.37500	3336
28.38333	3182
28.39167	3030
28.40000	2878
28.40833	2729
28.41667	2586
28.42500	2448
28.43333	2317
28.44167	2189
28.45000	2069
28.45833	1953
28.46667	1843
28.47500	1737
28.48333	1635
28.49167	1540
28.50000	1455
28.50833	1372
28.51667	1291
28.52500	1216
28.53333	1146
28.54167	1081
28.55000	1023
28.55833	969
28.56667	917
28.57500	867
28.58333	820
28.59167	778
28.60000	740
28.60833	705
28.61667	672
28.62500	644
28.63333	620
28.64167	599
28.65000	582
28.65833	564
28.66667	548
28.67500	534
28.68333	519
28.69167	506
28.70000	494
28.70833	485
28.71667	477
28.72500	470
28.73333	462
28.74167	454
28.75000	449
28.75833	443
28.76667	439
28.77500	436
28.78333	432
28.79167	429
28.80000	427
28.80833	426
28.81667	424
28.82500	422
28.83333	419
28.84167	415
28.85000	413
28.85833	412
28.86667	409
28.87500	407
28.88333	407
28.89167	408
28.90000	408
28.90833	408
28.91667	408
28.92500	407
28.93333	406
28.94167	408
28.95000	411
28.95833	412
28.96667	412
28.97500	412
28.98333	410
28.99167	409
29.00000	409
29.00833	411
29.01667	413
29.02500	416
29.03333	419
29.04167	419
29.05000	416
29.05833	416
29.06667	417
29.07500	413
29.08333	411
29.09167	411
29.10000	412
29.10833	413
29.11667	415
29.12500	415
29.13333	415
29.14167	413
29.15000	413
29.15833	415
29.16667	417
29.17500	417
29.18333	416
29.19167	416
29.20000	416
29.20833	418
29.21667	422
29.22500	426
29.23333	430
29.24167	435
29.25000	440
29.25833	442
29.26667	443
29.27500	446
29.28333	451
29.29167	453
29.30000	453
29.30833	451
29.31667	451
29.32500	450
29.33333	450
29.34167	451
29.35000	452
29.35833	451
29.36667	451
29.37500	451
29.38333	449
29.39167	449
29.40000	449
29.40833	451
29.41667	453
29.42500	453
29.43333	454
29.44167	455
29.45000	454
29.45833	455
29.46667	455
29.47500	455
29.48333	457
29.49167	457
29.50000	456
29.50833	454
29.51667	455
29.52500	458
29.53333	459
29.54167	458
29.55000	458
29.55833	460
29.56667	460
29.57500	458
29.58333	455
29.59167	452
29.60000	451
29.60833	451
29.61667	452
29.62500	453
29.63333	454
29.64167	454
29.65000	454
29.65833	454
29.66667	451
29.67500	451
29.68333	452
29.69167	453
29.70000	452
29.70833	451
29.71667	454
29.72500	457
29.73333	458
29.74167	457
29.75000	456
29.75833	457
29.76667	457
29.77500	459
29.78333	459
29.79167	458
29.80000	457
29.80833	455
29.81667	454
29.82500	453
29.83333	452
29.84167	452
29.85000	454
29.85833	455
29.86667	456
29.87500	456
29.88333	456
29.89167	455
29.90000	455
29.90833	456
29.91667	457
29.92500	458
29.93333	459
29.94167	460
29.95000	459
29.95833	460
29.96667	459
29.97500	456
29.98333	457
29.99167	458
30.00000	458

[LC Chromatogram(Detector B-Ch1)]
Interval(msec)	500
# of Points	3601
Start Time(min)	0.000
End Time(min)	30.000
Intensity Units	mV
Intensity Multiplier	0.001
R.Time (min)	Intensity
0.00000	258
0.00833	258
0.01667	103
0.02500	-0
0.03333	-1
0.04167	-1
0.05000	-1
0.05833	-0
0.06667	0
0.07500	1
0.08333	2
0.09167	2
0.10000	2
0.10833	2
0.11667	2
0.12500	3
0.13333	3
0.14167	3
0.15000	4
0.15833	4
0.16667	4
0.17500	4
0.18333	4
0.19167	4
0.20000	4
0.20833	4
0.21667	4
0.22500	4
0.23333	4
0.24167	4
0.25000	4
0.25833	4
0.26667	5
0.27500	5
0.28333	5
0.29167	5
0.30000	5
0.30833	5
0.31667	5
0.32500	6
0.33333	6
0.34167	6
0.35000	5
0.35833	6
0.36667	6
0.37500	6
0.38333	7
0.39167	7
0.40000	7
0.40833	7
0.41667	7
0.42500	7
0.43333	7
0.44167	7
0.45000	8
0.45833	8
0.46667	8
0.47500	8
0.48333	8
0.49167	8
0.50000	8
0.50833	9
0.51667	9
0.52500	9
0.53333	10
0.54167	10
0.55000	11
0.55833	11
0.56667	11
0.57500	11
0.58333	10
0.59167	10
0.60000	11
0.60833	12
0.61667	11
0.62500	11
0.63333	10
0.64167	10
0.65000	9
0.65833	9
0.66667	10
0.67500	10
0.68333	10
0.69167	11
0.70000	12
0.70833	13
0.71667	14
0.72500	15
0.73333	15
0.74167	16
0.75000	16
0.75833	17
0.76667	17
0.77500	17
0.78333	17
0.79167	17
0.80000	17
0.80833	17
0.81667	17
0.82500	17
0.83333	17
0.84167	18
0.85000	18
0.85833	18
0.86667	18
0.87500	18
0.88333	18
0.89167	19
0.90000	19
0.90833	19
0.91667	19
0.92500	19
0.93333	20
0.94167	20
0.95000	20
0.95833	20
0.96667	20
0.97500	20
0.98333	20
0.99167	20
1.00000	20
1.00833	20
1.01667	19
1.02500	19
1.03333	18
1.04167	18
1.05000	18
1.05833	18
1.06667	18
1.07500	19
1.08333	20
1.09167	21
1.10000	22
1.10833	23
1.11667	24
1.12500	24
1.13333	24
1.14167	24
1.15000	24
1.15833	24
1.16667	23
1.17500	23
1.18333	24
1.19167	24
1.20000	24
1.20833	24
1.21667	24
1.22500	25
1.23333	25
1.24167	26
1.25000	26
1.25833	26
1.26667	27
1.27500	28
1.28333	28
1.29167	28
1.30000	29
1.30833	29
1.31667	29
1.32500	29
1.33333	29
1.34167	29
1.35000	28
1.35833	28
1.36667	27
1.37500	27
1.38333	27
1.39167	27
1.40000	27
1.40833	28
1.41667	29
1.42500	29
1.43333	29
1.44167	30
1.45000	30
1.45833	30
1.46667	30
1.47500	30
1.48333	30
1.49167	30
1.50000	31
1.50833	31
1.51667	31
1.52500	31
1.53333	32
1.54167	32
1.55000	32
1.55833	33
1.56667	33
1.57500	33
1.58333	33
1.59167	33
1.60000	34
1.60833	34
1.61667	34
1.62500	34
1.63333	35
1.64167	35
1.65000	35
1.65833	35
1.66667	35
1.67500	36
1.68333	36
1.69167	36
1.70000	36
1.70833	36
1.71667	36
1.72500	37
1.73333	37
1.74167	37
1.75000	37
1.75833	38
1.76667	38
1.77500	38
1.78333	38
1.79167	38
1.80000	38
1.80833	38
1.81667	38
1.82500	38
1.83333	38
1.84167	38
1.85000	38
1.85833	38
1.86667	39
1.87500	39
1.88333	39
1.89167	39
1.90000	39
1.90833	39
1.91667	39
1.92500	40
1.93333	40
1.94167	41
1.95000	41
1.95833	41
1.96667	42
1.97500	42
1.98333	42
1.99167	42
2.00000	42
2.00833	43
2.01667	43
2.02500	43
2.03333	44
2.04167	44
2.05000	45
2.05833	45
2.06667	45
2.07500	45
2.08333	46
2.09167	46
2.10000	45
2.10833	46
2.11667	46
2.12500	46
2.13333	46
2.14167	46
2.15000	47
2.15833	47
2.16667	47
2.17500	48
2.18333	48
2.19167	48
2.20000	48
2.20833	48
2.21667	49
2.22500	49
2.23333	49
2.24167	49
2.25000	49
2.25833	49
2.26667	49
2.27500	49
2.28333	49
2.29167	49
2.30000	49
2.30833	49
2.31667	50
2.32500	50
2.33333	50
2.34167	49
2.35000	50
2.35833	50
2.36667	50
2.37500	50
2.38333	50
2.39167	50
2.40000	50
2.40833	51
2.41667	51
2.42500	52
2.43333	52
2.44167	52
2.45000	53
2.45833	53
2.46667	53
2.47500	53
2.48333	53
2.49167	53
2.50000	53
2.50833	53
2.51667	53
2.52500	53
2.53333	54
2.54167	54
2.55000	54
2.55833	55
2.56667	55
2.57500	55
2.58333	55
2.59167	55
2.60000	55
2.60833	54
2.61667	54
2.62500	54
2.63333	54
2.64167	54
2.65000	54
2.65833	54
2.66667	55
2.67500	55
2.68333	55
2.69167	55
2.70000	55
2.70833	55
2.71667	55
2.72500	55
2.73333	55
2.74167	55
2.75000	55
2.75833	56
2.76667	56
2.77500	56
2.78333	56
2.79167	56
2.80000	56
2.80833	57
2.81667	56
2.82500	56
2.83333	56
2.84167	56
2.85000	56
2.85833	56
2.86667	57
2.87500	57
2.88333	56
2.89167	56
2.90000	56
2.90833	57
2.91667	57
2.92500	57
2.93333	57
2.94167	57
2.95000	57
2.95833	58
2.96667	58
2.97500	58
2.98333	58
2.99167	58
3.00000	58
3.00833	58
3.01667	59
3.02500	59
3.03333	58
3.04167	58
3.05000	58
3.05833	57
3.06667	57
3.07500	57
3.08333	57
3.09167	57
3.10000	58
3.10833	58
3.11667	58
3.12500	58
3.13333	58
3.14167	58
3.15000	59
3.15833	59
3.16667	59
3.17500	59
3.18333	59
3.19167	59
3.20000	59
3.20833	59
3.21667	60
3.22500	60
3.23333	60
3.24167	60
3.25000	60
3.25833	60
3.26667	60
3.27500	60
3.28333	60
3.29167	60
3.30000	60
3.30833	60
3.31667	60
3.32500	60
3.33333	60
3.34167	60
3.35000	60
3.35833	60
3.36667	60
3.37500	60
3.38333	60
3.39167	59
3.40000	59
3.40833	60
3.41667	61
3.42500	61
3.43333	62
3.44167	62
3.45000	63
3.45833	63
3.46667	63
3.47500	63
3.48333	63
3.49167	63
3.50000	63
3.50833	62
3.51667	62
3.52500	62
3.53333	62
3.54167	62
3.55000	62
3.55833	62
3.56667	63
3.57500	64
3.58333	64
3.59167	65
3.60000	65
3.60833	65
3.61667	65
3.62500	65
3.63333	65
3.64167	65
3.65000	65
3.65833	65
3.66667	66
3.67500	66
3.68333	66
3.69167	66
3.70000	66
3.70833	66
3.71667	66
3.72500	65
3.73333	65
3.74167	65
3.75000	64
3.75833	64
3.76667	64
3.77500	64
3.78333	65
3.79167	65
3.80000	65
3.80833	65
3.81667	65
3.82500	65
3.83333	65
3.84167	65
3.85000	64
3.85833	64
3.86667	64
3.87500	63
3.88333	63
3.89167	64
3.90000	64
3.90833	64
3.91667	64
3.92500	64
3.93333	64
3.94167	65
3.95000	65
3.95833	65
3.96667	64
3.97500	64
3.98333	64
3.99167	64
4.00000	64
4.00833	64
4.01667	64
4.02500	64
4.03333	64
4.04167	64
4.05000	64
4.05833	63
4.06667	63
4.07500	63
4.08333	63
4.09167	63
4.10000	63
4.10833	63
4.11667	63
4.12500	63
4.13333	63
4.14167	63
4.15000	63
4.15833	63
4.16667	62
4.17500	62
4.18333	62
4.19167	62
4.20000	63
4.20833	62
4.21667	62
4.22500	62
4.23333	62
4.24167	62
4.25000	61
4.25833	61
4.26667	61
4.27500	61
4.28333	60
4.29167	60
4.30000	60
4.30833	60
4.31667	59
4.32500	59
4.33333	59
4.34167	59
4.35000	59
4.35833	60
4.36667	60
4.37500	60
4.38333	59
4.39167	59
4.40000	58
4.40833	58
4.41667	58
4.42500	58
4.43333	58
4.44167	58
4.45000	58
4.45833	59
4.46667	59
4.47500	59
4.48333	60
4.49167	60
4.50000	60
4.50833	60
4.51667	60
4.52500	60
4.53333	60
4.54167	59
4.55000	59
4.55833	59
4.56667	58
4.57500	58
4.58333	58
4.59167	58
4.60000	57
4.60833	57
4.61667	56
4.62500	56
4.63333	56
4.64167	56
4.65000	56
4.65833	56
4.66667	56
4.67500	56
4.68333	56
4.69167	56
4.70000	55
4.70833	56
4.71667	56
4.72500	56
4.73333	56
4.74167	56
4.75000	56
4.75833	56
4.76667	55
4.77500	55
4.78333	55
4.79167	55
4.80000	55
4.80833	55
4.81667	54
4.82500	55
4.83333	55
4.84167	55
4.85000	55
4.85833	55
4.86667	55
4.87500	55
4.88333	54
4.89167	54
4.90000	54
4.90833	54
4.91667	54
4.92500	54
4.93333	54
4.94167	54
4.95000	54
4.95833	54
4.96667	54
4.97500	54
4.98333	54
4.99167	54
5.00000	54
5.00833	55
5.01667	54
5.02500	54
5.03333	54
5.04167	54
5.05000	54
5.05833	54
5.06667	54
5.07500	54
5.08333	54
5.09167	54
5.10000	54
5.10833	54
5.11667	54
5.12500	54
5.13333	54
5.14167	54
5.15000	54
5.15833	54
5.16667	54
5.17500	54
5.18333	54
5.19167	55
5.20000	55
5.20833	55
5.21667	55
5.22500	55
5.23333	55
5.24167	55
5.25000	55
5.25833	55
5.26667	55
5.27500	55
5.28333	55
5.29167	55
5.30000	55
5.30833	54
5.31667	54
5.32500	54
5.33333	54
5.34167	54
5.35000	54
5.35833	54
5.36667	54
5.37500	55
5.38333	55
5.39167	55
5.40000	55
5.40833	55
5.41667	55
5.42500	55
5.43333	55
5.44167	55
5.45000	55
5.45833	55
5.46667	55
5.47500	55
5.48333	55
5.49167	55
5.50000	55
5.50833	55
5.51667	55
5.52500	56
5.53333	56
5.54167	56
5.55000	56
5.55833	56
5.56667	56
5.57500	56
5.58333	56
5.59167	56
5.60000	56
5.60833	56
5.61667	56
5.62500	56
5.63333	55
5.64167	55
5.65000	55
5.65833	55
5.66667	55
5.67500	55
5.68333	55
5.69167	55
5.70000	55
5.70833	55
5.71667	55
5.72500	54
5.73333	54
5.74167	54
5.75000	54
5.75833	54
5.76667	54
5.77500	55
5.78333	55
5.79167	55
5.80000	54
5.80833	54
5.81667	54
5.82500	54
5.83333	54
5.84167	54
5.85000	54
5.85833	55
5.86667	55
5.87500	55
5.88333	55
5.89167	55
5.90000	54
5.90833	54
5.91667	54
5.92500	54
5.93333	54
5.94167	54
5.95000	54
5.95833	54
5.96667	54
5.97500	54
5.98333	54
5.99167	54
6.00000	54
6.00833	54
6.01667	54
6.02500	54
6.03333	54
6.04167	54
6.05000	54
6.05833	55
6.06667	55
6.07500	55
6.08333	55
6.09167	55
6.10000	55
6.10833	55
6.11667	55
6.12500	55
6.13333	55
6.14167	55
6.15000	54
6.15833	54
6.16667	54
6.17500	54
6.18333	54
6.19167	54
6.20000	54
6.20833	54
6.21667	55
6.22500	55
6.23333	54
6.24167	54
6.25000	53
6.25833	53
6.26667	53
6.27500	53
6.28333	53
6.29167	53
6.30000	53
6.30833	53
6.31667	54
6.32500	53
6.33333	53
6.34167	53
6.35000	53
6.35833	53
6.36667	53
6.37500	53
6.38333	53
6.39167	53
6.40000	53
6.40833	52
6.41667	52
6.42500	52
6.43333	52
6.44167	52
6.45000	52
6.45833	52
6.46667	51
6.47500	51
6.48333	51
6.49167	51
6.50000	52
6.50833	52
6.51667	52
6.52500	52
6.53333	52
6.54167	52
6.55000	52
6.55833	52
6.56667	52
6.57500	52
6.58333	52
6.59167	52
6.60000	52
6.60833	51
6.61667	51
6.62500	51
6.63333	51
6.64167	51
6.65000	51
6.65833	50
6.66667	50
6.67500	50
6.68333	50
6.69167	50
6.70000	50
6.70833	50
6.71667	50
6.72500	50
6.73333	50
6.74167	50
6.75000	50
6.75833	49
6.76667	49
6.77500	49
6.78333	49
6.79167	49
6.80000	49
6.80833	48
6.81667	48
6.82500	48
6.83333	48
6.84167	48
6.85000	48
6.85833	48
6.86667	47
6.87500	47
6.88333	47
6.89167	48
6.90000	47
6.90833	47
6.91667	47
6.92500	47
6.93333	47
6.94167	47
6.95000	47
6.95833	46
6.96667	46
6.97500	46
6.98333	46
6.99167	46
7.00000	45
7.00833	45
7.01667	44
7.02500	44
7.03333	44
7.04167	44
7.05000	44
7.05833	44
7.06667	43
7.07500	44
7.08333	44
7.09167	44
7.10000	44
7.10833	44
7.11667	43
7.12500	43
7.13333	43
7.14167	43
7.15000	42
7.15833	42
7.16667	42
7.17500	41
7.18333	41
7.19167	40
7.20000	40
7.20833	39
7.21667	39
7.22500	39
7.23333	39
7.24167	38
7.25000	38
7.25833	38
7.26667	38
7.27500	38
7.28333	37
7.29167	37
7.30000	37
7.30833	36
7.31667	36
7.32500	36
7.33333	36
7.34167	35
7.35000	35
7.35833	35
7.36667	34
7.37500	34
7.38333	34
7.39167	33
7.40000	33
7.40833	33
7.41667	32
7.42500	32
7.43333	31
7.44167	31
7.45000	30
7.45833	30
7.46667	29
7.47500	29
7.48333	29
7.49167	29
7.50000	28
7.50833	28
7.51667	28
7.52500	27
7.53333	27
7.54167	27
7.55000	27
7.55833	27
7.56667	26
7.57500	25
7.58333	25
7.59167	24
7.60000	24
7.60833	24
7.61667	23
7.62500	23
7.63333	22
7.64167	22
7.65000	22
7.65833	21
7.66667	21
7.67500	20
7.68333	20
7.69167	19
7.70000	19
7.70833	18
7.71667	18
7.72500	17
7.73333	17
7.74167	17
7.75000	16
7.75833	16
7.76667	16
7.77500	15
7.78333	14
7.79167	14
7.80000	13
7.80833	12
7.81667	11
7.82500	11
7.83333	11
7.84167	11
7.85000	11
7.85833	10
7.86667	10
7.87500	10
7.88333	9
7.89167	8
7.90000	7
7.90833	6
7.91667	5
7.92500	4
7.93333	3
7.94167	3
7.95000	2
7.95833	2
7.96667	3
7.97500	3
7.98333	3
7.99167	3
8.00000	3
8.00833	3
8.01667	2
8.02500	2
8.03333	2
8.04167	2
8.05000	2
8.05833	2
8.06667	2
8.07500	1
8.08333	1
8.09167	1
8.10000	1
8.10833	1
8.11667	1
8.12500	1
8.13333	1
8.14167	1
8.15000	0
8.15833	-0
8.16667	-1
8.17500	-1
8.18333	-1
8.19167	-2
8.20000	-2
8.20833	-2
8.21667	-2
8.22500	-2
8.23333	-3
8.24167	-3
8.25000	-4
8.25833	-4
8.26667	-4
8.27500	-4
8.28333	-4
8.29167	-5
8.30000	-5
8.30833	-5
8.31667	-6
8.32500	-6
8.33333	-6
8.34167	-6
8.35000	-6
8.35833	-7
8.36667	-7
8.37500	-8
8.38333	-8
8.39167	-9
8.40000	-9
8.40833	-9
8.41667	-9
8.42500	-9
8.43333	-10
8.44167	-10
8.45000	-11
8.45833	-11
8.46667	-11
8.47500	-11
8.48333	-12
8.49167	-13
8.50000	-13
8.50833	-13
8.51667	-13
8.52500	-14
8.53333	-14
8.54167	-14
8.55000	-14
8.55833	-14
8.56667	-14
8.57500	-15
8.58333	-15
8.59167	-15
8.60000	-16
8.60833	-16
8.61667	-16
8.62500	-17
8.63333	-17
8.64167	-17
8.65000	-17
8.65833	-18
8.66667	-18
8.67500	-18
8.68333	-18
8.69167	-18
8.70000	-18
8.70833	-19
8.71667	-19
8.72500	-20
8.73333	-20
8.74167	-19
8.75000	-19
8.75833	-19
8.76667	-20
8.77500	-20
8.78333	-20
8.79167	-21
8.80000	-21
8.80833	-21
8.81667	-21
8.82500	-21
8.83333	-21
8.84167	-21
8.85000	-20
8.85833	-20
8.86667	-20
8.87500	-20
8.88333	-20
8.89167	-21
8.90000	-21
8.90833	-21
8.91667	-21
8.92500	-21
8.93333	-22
8.94167	-21
8.95000	-21
8.95833	-21
8.96667	-21
8.97500	-22
8.98333	-22
8.99167	-22
9.00000	-21
9.00833	-21
9.01667	-21
9.02500	-22
9.03333	-22
9.04167	-22
9.05000	-22
9.05833	-22
9.06667	-22
9.07500	-21
9.08333	-21
9.09167	-21
9.10000	-21
9.10833	-21
9.11667	-21
9.12500	-21
9.13333	-21
9.14167	-20
9.15000	-20
9.15833	-20
9.16667	-20
9.17500	-20
9.18333	-20
9.19167	-20
9.20000	-20
9.20833	-20
9.21667	-20
9.22500	-21
9.23333	-21
9.24167	-20
9.25000	-20
9.25833	-21
9.26667	-21
9.27500	-21
9.28333	-21
9.29167	-21
9.30000	-21
9.30833	-21
9.31667	-21
9.32500	-21
9.33333	-20
9.34167	-20
9.35000	-20
9.35833	-20
9.36667	-20
9.37500	-20
9.38333	-20
9.39167	-20
9.40000	-21
9.40833	-21
9.41667	-21
9.42500	-21
9.43333	-21
9.44167	-21
9.45000	-21
9.45833	-21
9.46667	-20
9.47500	-20
9.48333	-20
9.49167	-20
9.50000	-20
9.50833	-20
9.51667	-20
9.52500	-20
9.53333	-20
9.54167	-20
9.55000	-20
9.55833	-20
9.56667	-21
9.57500	-21
9.58333	-21
9.59167	-21
9.60000	-21
9.60833	-21
9.61667	-21
9.62500	-20
9.63333	-20
9.64167	-20
9.65000	-20
9.65833	-20
9.66667	-20
9.67500	-20
9.68333	-20
9.69167	-20
9.70000	-20
9.70833	-20
9.71667	-20
9.72500	-20
9.73333	-21
9.74167	-20
9.75000	-20
9.75833	-20
9.76667	-20
9.77500	-20
9.78333	-20
9.79167	-20
9.80000	-20
9.80833	-20
9.81667	-19
9.82500	-19
9.83333	-19
9.84167	-19
9.85000	-19
9.85833	-19
9.86667	-19
9.87500	-19
9.88333	-19
9.89167	-19
9.90000	-19
9.90833	-19
9.91667	-19
9.92500	-19
9.93333	-19
9.94167	-19
9.95000	-19
9.95833	-19
9.96667	-18
9.97500	-18
9.98333	-18
9.99167	-18
10.00000	-18
10.00833	-18
10.01667	-18
10.02500	-18
10.03333	-18
10.04167	-18
10.05000	-18
10.05833	-18
10.06667	-18
10.07500	-18
10.08333	-18
10.09167	-18
10.10000	-18
10.10833	-17
10.11667	-17
10.12500	-17
10.13333	-16
10.14167	-16
10.15000	-16
10.15833	-15
10.16667	-15
10.17500	-15
10.18333	-15
10.19167	-15
10.20000	-15
10.20833	-15
10.21667	-15
10.22500	-15
10.23333	-14
10.24167	-14
10.25000	-14
10.25833	-14
10.26667	-14
10.27500	-13
10.28333	-13
10.29167	-13
10.30000	-13
10.30833	-12
10.31667	-12
10.32500	-12
10.33333	-12
10.34167	-12
10.35000	-11
10.35833	-11
10.36667	-11
10.37500	-11
10.38333	-11
10.39167	-11
10.40000	-11
10.40833	-11
10.41667	-11
10.42500	-12
10.43333	-12
10.44167	-12
10.45000	-12
10.45833	-12
10.46667	-12
10.47500	-12
10.48333	-11
10.49167	-12
10.50000	-12
10.50833	-12
10.51667	-12
10.52500	-12
10.53333	-12
10.54167	-12
10.55000	-12
10.55833	-12
10.56667	-12
10.57500	-13
10.58333	-13
10.59167	-13
10.60000	-13
10.60833	-13
10.61667	-13
10.62500	-12
10.63333	-13
10.64167	-13
10.65000	-13
10.65833	-13
10.66667	-13
10.67500	-13
10.68333	-13
10.69167	-13
10.70000	-13
10.70833	-13
10.71667	-13
10.72500	-14
10.73333	-14
10.74167	-14
10.75000	-14
10.75833	-14
10.76667	-14
10.77500	-14
10.78333	-14
10.79167	-14
10.80000	-14
10.80833	-14
10.81667	-14
10.82500	-14
10.83333	-14
10.84167	-14
10.85000	-13
10.85833	-13
10.86667	-13
10.87500	-13
10.88333	-14
10.89167	-14
10.90000	-14
10.90833	-14
10.91667	-14
10.92500	-14
10.93333	-14
10.94167	-14
10.95000	-14
10.95833	-15
10.96667	-15
10.97500	-15
10.98333	-14
10.99167	-14
11.00000	-14
11.00833	-14
11.01667	-15
11.02500	-15
11.03333	-15
11.04167	-15
11.05000	-15
11.05833	-15
11.06667	-15
11.07500	-16
11.08333	-16
11.09167	-15
11.10000	-15
11.10833	-15
11.11667	-16
11.12500	-16
11.13333	-16
11.14167	-16
11.15000	-16
11.15833	-17
11.16667	-17
11.17500	-17
11.18333	-17
11.19167	-17
11.20000	-17
11.20833	-17
11.21667	-16
11.22500	-16
11.23333	-17
11.24167	-17
11.25000	-17
11.25833	-17
11.26667	-17
11.27500	-17
11.28333	-17
11.29167	-17
11.30000	-17
11.30833	-17
11.31667	-17
11.32500	-17
11.33333	-17
11.34167	-17
11.35000	-17
11.35833	-17
11.36667	-17
11.37500	-17
11.38333	-18
11.39167	-18
11.40000	-18
11.40833	-18
11.41667	-18
11.42500	-18
11.43333	-19
11.44167	-19
11.45000	-19
11.45833	-19
11.46667	-19
11.47500	-19
11.48333	-19
11.49167	-19
11.50000	-19
11.50833	-19
11.51667	-20
11.52500	-20
11.53333	-20
11.54167	-20
11.55000	-20
11.55833	-20
11.56667	-20
11.57500	-20
11.58333	-20
11.59167	-20
11.60000	-20
11.60833	-20
11.61667	-21
11.62500	-21
11.63333	-21
11.64167	-21
11.65000	-22
11.65833	-22
11.66667	-22
11.67500	-22
11.68333	-22
11.69167	-22
11.70000	-23
11.70833	-23
11.71667	-23
11.72500	-23
11.73333	-23
11.74167	-23
11.75000	-24
11.75833	-24
11.76667	-24
11.77500	-24
11.78333	-24
11.79167	-24
11.80000	-24
11.80833	-25
11.81667	-25
11.82500	-25
11.83333	-25
11.84167	-26
11.85000	-26
11.85833	-27
11.86667	-27
11.87500	-27
11.88333	-27
11.89167	-27
11.90000	-27
11.90833	-27
11.91667	-27
11.92500	-27
11.93333	-27
11.94167	-27
11.95000	-28
11.95833	-28
11.96667	-28
11.97500	-29
11.98333	-29
11.99167	-30
12.00000	-30
12.00833	-30
12.01667	-31
12.02500	-31
12.03333	-31
12.04167	-31
12.05000	-32
12.05833	-32
12.06667	-32
12.07500	-32
12.08333	-32
12.09167	-33
12.10000	-33
12.10833	-33
12.11667	-33
12.12500	-33
12.13333	-34
12.14167	-34
12.15000	-35
12.15833	-36
12.16667	-36
12.17500	-36
12.18333	-36
12.19167	-36
12.20000	-36
12.20833	-37
12.21667	-37
12.22500	-38
12.23333	-38
12.24167	-38
12.25000	-39
12.25833	-39
12.26667	-39
12.27500	-39
12.28333	-40
12.29167	-40
12.30000	-40
12.30833	-40
12.31667	-41
12.32500	-41
12.33333	-41
12.34167	-41
12.35000	-41
12.35833	-42
12.36667	-42
12.37500	-43
12.38333	-43
12.39167	-43
12.40000	-43
12.40833	-43
12.41667	-43
12.42500	-44
12.43333	-44
12.44167	-44
12.45000	-44
12.45833	-45
12.46667	-45
12.47500	-45
12.48333	-45
12.49167	-45
12.50000	-45
12.50833	-46
12.51667	-46
12.52500	-46
12.53333	-47
12.54167	-47
12.55000	-47
12.55833	-47
12.56667	-47
12.57500	-48
12.58333	-48
12.59167	-48
12.60000	-48
12.60833	-48
12.61667	-49
12.62500	-49
12.63333	-49
12.64167	-49
12.65000	-49
12.65833	-49
12.66667	-49
12.67500	-49
12.68333	-49
12.69167	-49
12.70000	-49
12.70833	-49
12.71667	-49
12.72500	-49
12.73333	-49
12.74167	-49
12.75000	-49
12.75833	-49
12.76667	-50
12.77500	-50
12.78333	-50
12.79167	-50
12.80000	-50
12.80833	-50
12.81667	-49
12.82500	-49
12.83333	-49
12.84167	-48
12.85000	-48
12.85833	-48
12.86667	-48
12.87500	-48
12.88333	-48
12.89167	-47
12.90000	-47
12.90833	-47
12.91667	-47
12.92500	-47
12.93333	-46
12.94167	-45
12.95000	-45
12.95833	-45
12.96667	-44
12.97500	-44
12.98333	-44
12.99167	-44
13.00000	-44
13.00833	-43
13.01667	-42
13.02500	-42
13.03333	-41
13.04167	-41
13.05000	-41
13.05833	-40
13.06667	-40
13.07500	-39
13.08333	-39
13.09167	-38
13.10000	-37
13.10833	-37
13.11667	-36
13.12500	-36
13.13333	-35
13.14167	-34
13.15000	-33
13.15833	-32
13.16667	-31
13.17500	-29
13.18333	-28
13.19167	-27
13.20000	-26
13.20833	-25
13.21667	-24
13.22500	-23
13.23333	-21
13.24167	-20
13.25000	-18
13.25833	-16
13.26667	-14
13.27500	-12
13.28333	-10
13.29167	-8
13.30000	-6
13.30833	-4
13.31667	-1
13.32500	1
13.33333	4
13.34167	7
13.35000	10
13.35833	13
13.36667	16
13.37500	19
13.38333	23
13.39167	26
13.40000	30
13.40833	34
13.41667	38
13.42500	42
13.43333	46
13.44167	50
13.45000	55
13.45833	60
13.46667	65
13.47500	71
13.48333	77
13.49167	83
13.50000	90
13.50833	96
13.51667	103
13.52500	109
13.53333	116
13.54167	123
13.55000	131
13.55833	140
13.56667	148
13.57500	157
13.58333	166
13.59167	175
13.60000	185
13.60833	194
13.61667	204
13.62500	215
13.63333	226
13.64167	237
13.65000	249
13.65833	262
13.66667	275
13.67500	288
13.68333	303
13.69167	317
13.70000	332
13.70833	347
13.71667	364
13.72500	380
13.73333	397
13.74167	415
13.75000	433
13.75833	452
13.76667	471
13.77500	491
13.78333	512
13.79167	533
13.80000	555
13.80833	578
13.81667	601
13.82500	626
13.83333	651
13.84167	677
13.85000	704
13.85833	731
13.86667	759
13.87500	788
13.88333	817
13.89167	848
13.90000	879
13.90833	911
13.91667	944
13.92500	979
13.93333	1014
13.94167	1050
13.95000	1087
13.95833	1124
13.96667	1163
13.97500	1203
13.98333	1243
13.99167	1285
14.00000	1328
14.00833	1371
14.01667	1416
14.02500	1462
14.03333	1508
14.04167	1556
14.05000	1605
14.05833	1656
14.06667	1707
14.07500	1760
14.08333	1813
14.09167	1867
14.10000	1923
14.10833	1979
14.11667	2037
14.12500	2096
14.13333	2156
14.14167	2217
14.15000	2279
14.15833	2342
14.16667	2407
14.17500	2473
14.18333	2540
14.19167	2608
14.20000	2677
14.20833	2747
14.21667	2817
14.22500	2889
14.23333	2962
14.24167	3037
14.25000	3112
14.25833	3188
14.26667	3266
14.27500	3344
14.28333	3423
14.29167	3503
14.30000	3584
14.30833	3666
14.31667	3749
14.32500	3833
14.33333	3917
14.34167	4002
14.35000	4088
14.35833	4175
14.36667	4263
14.37500	4352
14.38333	4441
14.39167	4530
14.40000	4621
14.40833	4712
14.41667	4804
14.42500	4897
14.43333	4990
14.44167	5083
14.45000	5177
14.45833	5271
14.46667	5365
14.47500	5460
14.48333	5556
14.49167	5651
14.50000	5747
14.50833	5843
14.51667	5939
14.52500	6036
14.53333	6133
14.54167	6229
14.55000	6326
14.55833	6423
14.56667	6519
14.57500	6616
14.58333	6714
14.59167	6811
14.60000	6907
14.60833	7004
14.61667	7101
14.62500	7198
14.63333	7295
14.64167	7392
14.65000	7488
14.65833	7584
14.66667	7681
14.67500	7776
14.68333	7872
14.69167	7967
14.70000	8062
14.70833	8157
14.71667	8252
14.72500	8347
14.73333	8441
14.74167	8535
14.75000	8629
14.75833	8723
14.76667	8817
14.77500	8910
14.78333	9003
14.79167	9096
14.80000	9188
14.80833	9280
14.81667	9373
14.82500	9465
14.83333	9556
14.84167	9648
14.85000	9740
14.85833	9831
14.86667	9922
14.87500	10014
14.88333	10104
14.89167	10195
14.90000	10286
14.90833	10376
14.91667	10467
14.92500	10557
14.93333	10647
14.94167	10737
14.95000	10827
14.95833	10917
14.96667	11007
14.97500	11097
14.98333	11187
14.99167	11276
15.00000	11365
15.00833	11454
15.01667	11543
15.02500	11632
15.03333	11721
15.04167	11810
15.05000	11898
15.05833	11987
15.06667	12075
15.07500	12163
15.08333	12251
15.09167	12338
15.10000	12425
15.10833	12512
15.11667	12598
15.12500	12685
15.13333	12770
15.14167	12855
15.15000	12940
15.15833	13024
15.16667	13108
15.17500	13192
15.18333	13275
15.19167	13358
15.20000	13441
15.20833	13524
15.21667	13606
15.22500	13687
15.23333	13767
15.24167	13847
15.25000	13927
15.25833	14005
15.26667	14082
15.27500	14158
15.28333	14233
15.29167	14308
15.30000	14382
15.30833	14456
15.31667	14528
15.32500	14600
15.33333	14671
15.34167	14742
15.35000	14812
15.35833	14881
15.36667	14949
15.37500	15016
15.38333	15081
15.39167	15146
15.40000	15209
15.40833	15271
15.41667	15332
15.42500	15393
15.43333	15452
15.44167	15510
15.45000	15566
15.45833	15622
15.46667	15676
15.47500	15729
15.48333	15782
15.49167	15832
15.50000	15882
15.50833	15931
15.51667	15979
15.52500	16025
15.53333	16070
15.54167	16115
15.55000	16158
15.55833	16200
15.56667	16241
15.57500	16280
15.58333	16318
15.59167	16355
15.60000	16391
15.60833	16425
15.61667	16459
15.62500	16491
15.63333	16522
15.64167	16552
15.65000	16581
15.65833	16608
15.66667	16635
15.67500	16660
15.68333	16684
15.69167	16707
15.70000	16728
15.70833	16749
15.71667	16768
15.72500	16786
15.73333	16803
15.74167	16818
15.75000	16832
15.75833	16846
15.76667	16858
15.77500	16869
15.78333	16879
15.79167	16888
15.80000	16895
15.80833	16902
15.81667	16907
15.82500	16912
15.83333	16915
15.84167	16917
15.85000	16918
15.85833	16917
15.86667	16916
15.87500	16914
15.88333	16911
15.89167	16907
15.90000	16902
15.90833	16895
15.91667	16888
15.92500	16880
15.93333	16871
15.94167	16862
15.95000	16851
15.95833	16839
15.96667	16825
15.97500	16811
15.98333	16795
15.99167	16779
16.00000	16762
16.00833	16744
16.01667	16725
16.02500	16706
16.03333	16686
16.04167	16665
16.05000	16644
16.05833	16622
16.06667	16599
16.07500	16575
16.08333	16549
16.09167	16523
16.10000	16496
16.10833	16468
16.11667	16439
16.12500	16410
16.13333	16380
16.14167	16350
16.15000	16318
16.15833	16286
16.16667	16253
16.17500	16220
16.18333	16185
16.19167	16150
16.20000	16114
16.20833	16078
16.21667	16041
16.22500	16003
16.23333	15965
16.24167	15926
16.25000	15886
16.25833	15846
16.26667	15806
16.27500	15765
16.28333	15724
16.29167	15681
16.30000	15638
16.30833	15595
16.31667	15551
16.32500	15506
16.33333	15461
16.34167	15415
16.35000	15369
16.35833	15322
16.36667	15275
16.37500	15228
16.38333	15180
16.39167	15132
16.40000	15084
16.40833	15035
16.41667	14985
16.42500	14936
16.43333	14885
16.44167	14835
16.45000	14784
16.45833	14732
16.46667	14681
16.47500	14629
16.48333	14576
16.49167	14523
16.50000	14470
16.50833	14416
16.51667	14362
16.52500	14308
16.53333	14254
16.54167	14200
16.55000	14145
16.55833	14091
16.56667	14036
16.57500	13980
16.58333	13924
16.59167	13868
16.60000	13812
16.60833	13755
16.61667	13699
16.62500	13642
16.63333	13585
16.64167	13528
16.65000	13472
16.65833	13415
16.66667	13358
16.67500	13301
16.68333	13244
16.69167	13187
16.70000	13130
16.70833	13072
16.71667	13014
16.72500	12955
16.73333	12897
16.74167	12839
16.75000	12781
16.75833	12723
16.76667	12665
16.77500	12606
16.78333	12548
16.79167	12489
16.80000	12430
16.80833	12371
16.81667	12312
16.82500	12253
16.83333	12194
16.84167	12136
16.85000	12077
16.85833	12019
16.86667	11960
16.87500	11901
16.88333	11843
16.89167	11784
16.90000	11725
16.90833	11666
16.91667	11607
16.92500	11549
16.93333	11490
16.94167	11431
16.95000	11372
16.95833	11314
16.96667	11255
16.97500	11197
16.98333	11138
16.99167	11080
17.00000	11022
17.00833	10964
17.01667	10906
17.02500	10848
17.03333	10790
17.04167	10732
17.05000	10675
17.05833	10617
17.06667	10560
17.07500	10504
17.08333	10447
17.09167	10390
17.10000	10333
17.10833	10276
17.11667	10220
17.12500	10164
17.13333	10108
17.14167	10051
17.15000	9995
17.15833	9939
17.16667	9882
17.17500	9826
17.18333	9770
17.19167	9715
17.20000	9660
17.20833	9605
17.21667	9551
17.22500	9497
17.23333	9443
17.24167	9389
17.25000	9335
17.25833	9281
17.26667	9227
17.27500	9173
17.28333	9119
17.29167	9065
17.30000	9012
17.30833	8958
17.31667	8905
17.32500	8852
17.33333	8799
17.34167	8747
17.35000	8695
17.35833	8643
17.36667	8591
17.37500	8540
17.38333	8488
17.39167	8437
17.40000	8387
17.40833	8336
17.41667	8286
17.42500	8236
17.43333	8186
17.44167	8136
17.45000	8086
17.45833	8036
17.46667	7987
17.47500	7938
17.48333	7889
17.49167	7840
17.50000	7792
17.50833	7744
17.51667	7696
17.52500	7648
17.53333	7600
17.54167	7552
17.55000	7505
17.55833	7458
17.56667	7411
17.57500	7364
17.58333	7317
17.59167	7271
17.60000	7225
17.60833	7179
17.61667	7133
17.62500	7088
17.63333	7042
17.64167	6997
17.65000	6953
17.65833	6908
17.66667	6863
17.67500	6819
17.68333	6775
17.69167	6732
17.70000	6688
17.70833	6645
17.71667	6601
17.72500	6558
17.73333	6515
17.74167	6472
17.75000	6430
17.75833	6388
17.76667	6345
17.77500	6303
17.78333	6261
17.79167	6220
17.80000	6179
17.80833	6138
17.81667	6097
17.82500	6056
17.83333	6016
17.84167	5975
17.85000	5935
17.85833	5895
17.86667	5855
17.87500	5816
17.88333	5776
17.89167	5737
17.90000	5698
17.90833	5660
17.91667	5622
17.92500	5584
17.93333	5546
17.94167	5508
17.95000	5471
17.95833	5434
17.96667	5397
17.97500	5361
17.98333	5324
17.99167	5288
18.00000	5251
18.00833	5214
18.01667	5178
18.02500	5142
18.03333	5107
18.04167	5072
18.05000	5037
18.05833	5002
18.06667	4967
18.07500	4932
18.08333	4897
18.09167	4863
18.10000	4829
18.10833	4794
18.11667	4760
18.12500	4727
18.13333	4693
18.14167	4660
18.15000	4627
18.15833	4595
18.16667	4562
18.17500	4530
18.18333	4498
18.19167	4466
18.20000	4434
18.20833	4402
18.21667	4370
18.22500	4339
18.23333	4308
18.24167	4277
18.25000	4246
18.25833	4216
18.26667	4185
18.27500	4155
18.28333	4126
18.29167	4096
18.30000	4066
18.30833	4037
18.31667	4007
18.32500	3978
18.33333	3948
18.34167	3919
18.35000	3891
18.35833	3862
18.36667	3833
18.37500	3804
18.38333	3776
18.39167	3748
18.40000	3720
18.40833	3693
18.41667	3666
18.42500	3639
18.43333	3612
18.44167	3585
18.45000	3558
18.45833	3532
18.46667	3506
18.47500	3479
18.48333	3453
18.49167	3427
18.50000	3402
18.50833	3376
18.51667	3351
18.52500	3325
18.53333	3300
18.54167	3275
18.55000	3250
18.55833	3225
18.56667	3200
18.57500	3176
18.58333	3152
18.59167	3128
18.60000	3104
18.60833	3080
18.61667	3056
18.62500	3033
18.63333	3010
18.64167	2987
18.65000	2964
18.65833	2941
18.66667	2919
18.67500	2896
18.68333	2874
18.69167	2851
18.70000	2829
18.70833	2807
18.71667	2785
18.72500	2764
18.73333	2742
18.74167	2721
18.75000	2699
18.75833	2678
18.76667	2657
18.77500	2636
18.78333	2615
18.79167	2594
18.80000	2573
18.80833	2552
18.81667	2532
18.82500	2512
18.83333	2491
18.84167	2471
18.85000	2451
18.85833	2432
18.86667	2412
18.87500	2393
18.88333	2374
18.89167	2355
18.90000	2336
18.90833	2318
18.91667	2299
18.92500	2281
18.93333	2262
18.94167	2243
18.95000	2225
18.95833	2207
18.96667	2189
18.97500	2171
18.98333	2154
18.99167	2136
19.00000	2118
19.00833	2101
19.01667	2084
19.02500	2066
19.03333	2049
19.04167	2032
19.05000	2016
19.05833	1999
19.06667	1982
19.07500	1966
19.08333	1949
19.09167	1933
19.10000	1917
19.10833	1901
19.11667	1885
19.12500	1869
19.13333	1853
19.14167	1838
19.15000	1823
19.15833	1808
19.16667	1793
19.17500	1778
19.18333	1763
19.19167	1748
19.20000	1733
19.20833	1718
19.21667	1704
19.22500	1689
19.23333	1674
19.24167	1660
19.25000	1646
19.25833	1632
19.26667	1618
19.27500	1604
19.28333	1590
19.29167	1576
19.30000	1563
19.30833	1550
19.31667	1536
19.32500	1522
19.33333	1509
19.34167	1496
19.35000	1483
19.35833	1470
19.36667	1457
19.37500	1445
19.38333	1432
19.39167	1420
19.40000	1407
19.40833	1395
19.41667	1382
19.42500	1370
19.43333	1358
19.44167	1346
19.45000	1334
19.45833	1322
19.46667	1311
19.47500	1299
19.48333	1288
19.49167	1276
19.50000	1265
19.50833	1253
19.51667	1242
19.52500	1231
19.53333	1220
19.54167	1208
19.55000	1198
19.55833	1187
19.56667	1176
19.57500	1166
19.58333	1156
19.59167	1146
19.60000	1136
19.60833	1126
19.61667	1116
19.62500	1105
19.63333	1095
19.64167	1085
19.65000	1075
19.65833	1066
19.66667	1056
19.67500	1046
19.68333	1037
19.69167	1027
19.70000	1018
19.70833	1008
19.71667	998
19.72500	989
19.73333	979
19.74167	970
19.75000	961
19.75833	952
19.76667	943
19.77500	935
19.78333	927
19.79167	918
19.80000	910
19.80833	901
19.81667	893
19.82500	885
19.83333	876
19.84167	868
19.85000	860
19.85833	852
19.86667	844
19.87500	836
19.88333	828
19.89167	820
19.90000	812
19.90833	805
19.91667	797
19.92500	790
19.93333	782
19.94167	775
19.95000	767
19.95833	760
19.96667	753
19.97500	746
19.98333	740
19.99167	732
20.00000	725
20.00833	718
20.01667	711
20.02500	705
20.03333	698
20.04167	691
20.05000	685
20.05833	679
20.06667	672
20.07500	666
20.08333	660
20.09167	654
20.10000	648
20.10833	641
20.11667	635
20.12500	629
20.13333	624
20.14167	618
20.15000	612
20.15833	606
20.16667	601
20.17500	595
20.18333	590
20.19167	584
20.20000	579
20.20833	574
20.21667	568
20.22500	563
20.23333	558
20.24167	553
20.25000	548
20.25833	543
20.26667	537
20.27500	533
20.28333	527
20.29167	523
20.30000	518
20.30833	513
20.31667	508
20.32500	504
20.33333	499
20.34167	494
20.35000	490
20.35833	485
20.36667	481
20.37500	476
20.38333	472
20.39167	468
20.40000	463
20.40833	459
20.41667	455
20.42500	451
20.43333	447
20.44167	442
20.45000	438
20.45833	434
20.46667	429
20.47500	425
20.48333	421
20.49167	417
20.50000	413
20.50833	410
20.51667	407
20.52500	403
20.53333	400
20.54167	396
20.55000	393
20.55833	389
20.56667	386
20.57500	382
20.58333	379
20.59167	375
20.60000	371
20.60833	368
20.61667	365
20.62500	361
20.63333	358
20.64167	355
20.65000	352
20.65833	349
20.66667	345
20.67500	342
20.68333	339
20.69167	336
20.70000	333
20.70833	330
20.71667	327
20.72500	324
20.73333	322
20.74167	319
20.75000	316
20.75833	313
20.76667	311
20.77500	308
20.78333	306
20.79167	304
20.80000	301
20.80833	299
20.81667	296
20.82500	294
20.83333	292
20.84167	290
20.85000	287
20.85833	284
20.86667	282
20.87500	280
20.88333	277
20.89167	275
20.90000	272
20.90833	270
20.91667	268
20.92500	266
20.93333	264
20.94167	261
20.95000	260
20.95833	258
20.96667	256
20.97500	254
20.98333	252
20.99167	250
21.00000	248
21.00833	246
21.01667	245
21.02500	243
21.03333	242
21.04167	240
21.05000	238
21.05833	237
21.06667	235
21.07500	233
21.08333	232
21.09167	231
21.10000	229
21.10833	228
21.11667	226
21.12500	225
21.13333	223
21.14167	222
21.15000	220
21.15833	218
21.16667	217
21.17500	215
21.18333	214
21.19167	212
21.20000	211
21.20833	210
21.21667	208
21.22500	207
21.23333	205
21.24167	204
21.25000	202
21.25833	201
21.26667	200
21.27500	199
21.28333	198
21.29167	196
21.30000	194
21.30833	193
21.31667	191
21.32500	190
21.33333	189
21.34167	187
21.35000	186
21.35833	184
21.36667	182
21.37500	180
21.38333	178
21.39167	176
21.40000	174
21.40833	172
21.41667	169
21.42500	167
21.43333	165
21.44167	163
21.45000	160
21.45833	157
21.46667	153
21.47500	150
21.48333	146
21.49167	141
21.50000	136
21.50833	129
21.51667	122
21.52500	114
21.53333	105
21.54167	95
21.55000	84
21.55833	71
21.56667	56
21.57500	40
21.58333	23
21.59167	3
21.60000	-19
21.60833	-42
21.61667	-68
21.62500	-96
21.63333	-126
21.64167	-158
21.65000	-192
21.65833	-228
21.66667	-266
21.67500	-306
21.68333	-347
21.69167	-389
21.70000	-432
21.70833	-475
21.71667	-519
21.72500	-563
21.73333	-606
21.74167	-648
21.75000	-688
21.75833	-726
21.76667	-761
21.77500	-793
21.78333	-822
21.79167	-847
21.80000	-867
21.80833	-884
21.81667	-895
21.82500	-902
21.83333	-904
21.84167	-900
21.85000	-892
21.85833	-880
21.86667	-863
21.87500	-842
21.88333	-817
21.89167	-789
21.90000	-758
21.90833	-725
21.91667	-690
21.92500	-653
21.93333	-615
21.94167	-576
21.95000	-537
21.95833	-498
21.96667	-460
21.97500	-422
21.98333	-385
21.99167	-350
22.00000	-315
22.00833	-283
22.01667	-251
22.02500	-222
22.03333	-195
22.04167	-169
22.05000	-146
22.05833	-124
22.06667	-103
22.07500	-84
22.08333	-67
22.09167	-50
22.10000	-35
22.10833	-22
22.11667	-9
22.12500	3
22.13333	14
22.14167	24
22.15000	34
22.15833	43
22.16667	51
22.17500	59
22.18333	66
22.19167	72
22.20000	78
22.20833	84
22.21667	90
22.22500	95
22.23333	100
22.24167	105
22.25000	109
22.25833	112
22.26667	116
22.27500	119
22.28333	122
22.29167	125
22.30000	127
22.30833	130
22.31667	132
22.32500	134
22.33333	136
22.34167	138
22.35000	139
22.35833	141
22.36667	142
22.37500	144
22.38333	145
22.39167	146
22.40000	148
22.40833	149
22.41667	151
22.42500	152
22.43333	154
22.44167	156
22.45000	158
22.45833	161
22.46667	165
22.47500	169
22.48333	173
22.49167	179
22.50000	186
22.50833	193
22.51667	202
22.52500	213
22.53333	225
22.54167	239
22.55000	255
22.55833	273
22.56667	294
22.57500	318
22.58333	345
22.59167	375
22.60000	409
22.60833	447
22.61667	488
22.62500	534
22.63333	584
22.64167	638
22.65000	698
22.65833	761
22.66667	829
22.67500	901
22.68333	977
22.69167	1056
22.70000	1139
22.70833	1225
22.71667	1313
22.72500	1404
22.73333	1495
22.74167	1587
22.75000	1679
22.75833	1768
22.76667	1856
22.77500	1941
22.78333	2022
22.79167	2099
22.80000	2169
22.80833	2233
22.81667	2290
22.82500	2339
22.83333	2379
22.84167	2411
22.85000	2433
22.85833	2446
22.86667	2449
22.87500	2443
22.88333	2428
22.89167	2403
22.90000	2369
22.90833	2327
22.91667	2277
22.92500	2220
22.93333	2157
22.94167	2088
22.95000	2015
22.95833	1937
22.96667	1856
22.97500	1772
22.98333	1686
22.99167	1600
23.00000	1514
23.00833	1428
23.01667	1343
23.02500	1260
23.03333	1180
23.04167	1102
23.05000	1027
23.05833	955
23.06667	887
23.07500	822
23.08333	761
23.09167	704
23.10000	650
23.10833	600
23.11667	555
23.12500	512
23.13333	473
23.14167	437
23.15000	404
23.15833	374
23.16667	347
23.17500	322
23.18333	300
23.19167	279
23.20000	261
23.20833	244
23.21667	230
23.22500	217
23.23333	206
23.24167	197
23.25000	189
23.25833	183
23.26667	177
23.27500	172
23.28333	167
23.29167	164
23.30000	161
23.30833	158
23.31667	156
23.32500	154
23.33333	152
23.34167	151
23.35000	150
23.35833	149
23.36667	149
23.37500	149
23.38333	149
23.39167	149
23.40000	149
23.40833	150
23.41667	150
23.42500	150
23.43333	151
23.44167	152
23.45000	152
23.45833	153
23.46667	153
23.47500	153
23.48333	153
23.49167	153
23.50000	153
23.50833	154
23.51667	154
23.52500	153
23.53333	152
23.54167	151
23.55000	149
23.55833	148
23.56667	147
23.57500	145
23.58333	144
23.59167	143
23.60000	142
23.60833	142
23.61667	141
23.62500	140
23.63333	139
23.64167	138
23.65000	136
23.65833	135
23.66667	134
23.67500	132
23.68333	131
23.69167	130
23.70000	128
23.70833	127
23.71667	126
23.72500	124
23.73333	123
23.74167	121
23.75000	120
23.75833	119
23.76667	118
23.77500	117
23.78333	116
23.79167	115
23.80000	114
23.80833	114
23.81667	113
23.82500	113
23.83333	113
23.84167	112
23.85000	112
23.85833	112
23.86667	111
23.87500	111
23.88333	110
23.89167	110
23.90000	109
23.90833	109
23.91667	109
23.92500	109
23.93333	109
23.94167	108
23.95000	108
23.95833	108
23.96667	108
23.97500	109
23.98333	109
23.99167	109
24.00000	110
24.00833	110
24.01667	111
24.02500	110
24.03333	111
24.04167	111
24.05000	111
24.05833	111
24.06667	112
24.07500	112
24.08333	113
24.09167	114
24.10000	115
24.10833	116
24.11667	117
24.12500	118
24.13333	119
24.14167	120
24.15000	121
24.15833	122
24.16667	123
24.17500	124
24.18333	124
24.19167	126
24.20000	127
24.20833	128
24.21667	128
24.22500	129
24.23333	129
24.24167	130
24.25000	131
24.25833	132
24.26667	133
24.27500	135
24.28333	138
24.29167	140
24.30000	143
24.30833	146
24.31667	149
24.32500	153
24.33333	157
24.34167	160
24.35000	164
24.35833	167
24.36667	171
24.37500	174
24.38333	177
24.39167	180
24.40000	183
24.40833	187
24.41667	190
24.42500	192
24.43333	195
24.44167	197
24.45000	199
24.45833	200
24.46667	201
24.47500	203
24.48333	203
24.49167	204
24.50000	204
24.50833	203
24.51667	202
24.52500	201
24.53333	199
24.54167	197
24.55000	194
24.55833	191
24.56667	187
24.57500	184
24.58333	180
24.59167	176
24.60000	173
24.60833	169
24.61667	165
24.62500	161
24.63333	158
24.64167	154
24.65000	150
24.65833	147
24.66667	143
24.67500	139
24.68333	135
24.69167	131
24.70000	126
24.70833	122
24.71667	119
24.72500	116
24.73333	113
24.74167	111
24.75000	110
24.75833	108
24.76667	106
24.77500	105
24.78333	104
24.79167	103
24.80000	102
24.80833	101
24.81667	99
24.82500	98
24.83333	97
24.84167	96
24.85000	96
24.85833	95
24.86667	94
24.87500	93
24.88333	92
24.89167	92
24.90000	91
24.90833	91
24.91667	90
24.92500	90
24.93333	90
24.94167	90
24.95000	90
24.95833	90
24.96667	90
24.97500	90
24.98333	89
24.99167	89
25.00000	90
25.00833	90
25.01667	90
25.02500	90
25.03333	90
25.04167	90
25.05000	90
25.05833	91
25.06667	91
25.07500	91
25.08333	91
25.09167	91
25.10000	91
25.10833	91
25.11667	91
25.12500	91
25.13333	91
25.14167	91
25.15000	90
25.15833	90
25.16667	90
25.17500	90
25.18333	89
25.19167	89
25.20000	88
25.20833	88
25.21667	87
25.22500	86
25.23333	85
25.24167	84
25.25000	83
25.25833	83
25.26667	82
25.27500	81
25.28333	81
25.29167	80
25.30000	79
25.30833	78
25.31667	77
25.32500	76
25.33333	75
25.34167	74
25.35000	73
25.35833	72
25.36667	71
25.37500	71
25.38333	70
25.39167	69
25.40000	68
25.40833	67
25.41667	67
25.42500	66
25.43333	66
25.44167	65
25.45000	65
25.45833	65
25.46667	64
25.47500	64
25.48333	64
25.49167	64
25.50000	64
25.50833	64
25.51667	64
25.52500	64
25.53333	64
25.54167	64
25.55000	64
25.55833	64
25.56667	64
25.57500	64
25.58333	64
25.59167	65
25.60000	65
25.60833	65
25.61667	65
25.62500	66
25.63333	66
25.64167	66
25.65000	66
25.65833	66
25.66667	66
25.67500	66
25.68333	66
25.69167	66
25.70000	66
25.70833	66
25.71667	66
25.72500	65
25.73333	65
25.74167	64
25.75000	64
25.75833	63
25.76667	62
25.77500	62
25.78333	62
25.79167	62
25.80000	62
25.80833	63
25.81667	63
25.82500	64
25.83333	64
25.84167	64
25.85000	64
25.85833	64
25.86667	64
25.87500	64
25.88333	64
25.89167	64
25.90000	64
25.90833	63
25.91667	63
25.92500	63
25.93333	63
25.94167	63
25.95000	63
25.95833	63
25.96667	62
25.97500	62
25.98333	62
25.99167	61
26.00000	61
26.00833	61
26.01667	61
26.02500	61
26.03333	60
26.04167	60
26.05000	60
26.05833	60
26.06667	60
26.07500	60
26.08333	60
26.09167	59
26.10000	59
26.10833	59
26.11667	59
26.12500	60
26.13333	60
26.14167	60
26.15000	60
26.15833	60
26.16667	60
26.17500	60
26.18333	60
26.19167	60
26.20000	60
26.20833	60
26.21667	59
26.22500	59
26.23333	59
26.24167	59
26.25000	59
26.25833	59
26.26667	59
26.27500	59
26.28333	59
26.29167	59
26.30000	58
26.30833	58
26.31667	57
26.32500	57
26.33333	57
26.34167	57
26.35000	57
26.35833	57
26.36667	57
26.37500	56
26.38333	56
26.39167	56
26.40000	55
26.40833	55
26.41667	55
26.42500	55
26.43333	55
26.44167	55
26.45000	55
26.45833	55
26.46667	55
26.47500	55
26.48333	55
26.49167	54
26.50000	54
26.50833	53
26.51667	53
26.52500	53
26.53333	52
26.54167	52
26.55000	52
26.55833	52
26.56667	51
26.57500	51
26.58333	51
26.59167	50
26.60000	50
26.60833	49
26.61667	49
26.62500	49
26.63333	49
26.64167	48
26.65000	48
26.65833	48
26.66667	47
26.67500	47
26.68333	47
26.69167	46
26.70000	46
26.70833	45
26.71667	44
26.72500	44
26.73333	43
26.74167	42
26.75000	41
26.75833	40
26.76667	39
26.77500	39
26.78333	37
26.79167	35
26.80000	34
26.80833	32
26.81667	31
26.82500	28
26.83333	26
26.84167	23
26.85000	19
26.85833	15
26.86667	11
26.87500	7
26.88333	2
26.89167	-3
26.90000	-9
26.90833	-16
26.91667	-23
26.92500	-31
26.93333	-40
26.94167	-50
26.95000	-61
26.95833	-72
26.96667	-85
26.97500	-98
26.98333	-113
26.99167	-129
27.00000	-146
27.00833	-164
27.01667	-183
27.02500	-204
27.03333	-225
27.04167	-248
27.05000	-272
27.05833	-297
27.06667	-324
27.07500	-351
27.08333	-379
27.09167	-408
27.10000	-438
27.10833	-469
27.11667	-500
27.12500	-532
27.13333	-565
27.14167	-597
27.15000	-630
27.15833	-663
27.16667	-696
27.17500	-728
27.18333	-760
27.19167	-791
27.20000	-821
27.20833	-850
27.21667	-878
27.22500	-904
27.23333	-928
27.24167	-951
27.25000	-972
27.25833	-992
27.26667	-1009
27.27500	-1023
27.28333	-1036
27.29167	-1046
27.30000	-1053
27.30833	-1058
27.31667	-1060
27.32500	-1060
27.33333	-1057
27.34167	-1052
27.35000	-1044
27.35833	-1032
27.36667	-1019
27.37500	-1003
27.38333	-985
27.39167	-965
27.40000	-943
27.40833	-919
27.41667	-894
27.42500	-868
27.43333	-841
27.44167	-814
27.45000	-785
27.45833	-755
27.46667	-725
27.47500	-694
27.48333	-663
27.49167	-632
27.50000	-600
27.50833	-568
27.51667	-536
27.52500	-505
27.53333	-475
27.54167	-445
27.55000	-417
27.55833	-389
27.56667	-363
27.57500	-337
27.58333	-313
27.59167	-289
27.60000	-266
27.60833	-246
27.61667	-226
27.62500	-208
27.63333	-191
27.64167	-175
27.65000	-160
27.65833	-146
27.66667	-132
27.67500	-119
27.68333	-106
27.69167	-95
27.70000	-84
27.70833	-74
27.71667	-65
27.72500	-57
27.73333	-50
27.74167	-44
27.75000	-38
27.75833	-34
27.76667	-30
27.77500	-26
27.78333	-23
27.79167	-20
27.80000	-18
27.80833	-15
27.81667	-13
27.82500	-12
27.83333	-11
27.84167	-10
27.85000	-10
27.85833	-10
27.86667	-11
27.87500	-12
27.88333	-14
27.89167	-15
27.90000	-16
27.90833	-18
27.91667	-21
27.92500	-24
27.93333	-27
27.94167	-30
27.95000	-34
27.95833	-38
27.96667	-43
27.97500	-48
27.98333	-53
27.99167	-59
28.00000	-64
28.00833	-71
28.01667	-78
28.02500	-85
28.03333	-93
28.04167	-101
28.05000	-109
28.05833	-118
28.06667	-126
28.07500	-136
28.08333	-146
28.09167	-156
28.10000	-167
28.10833	-177
28.11667	-188
28.12500	-200
28.13333	-211
28.14167	-222
28.15000	-234
28.15833	-245
28.16667	-257
28.17500	-268
28.18333	-279
28.19167	-290
28.20000	-301
28.20833	-312
28.21667	-322
28.22500	-333
28.23333	-343
28.24167	-352
28.25000	-360
28.25833	-368
28.26667	-375
28.27500	-381
28.28333	-387
28.29167	-392
28.30000	-397
28.30833	-400
28.31667	-403
28.32500	-404
28.33333	-406
28.34167	-406
28.35000	-405
28.35833	-404
28.36667	-401
28.37500	-398
28.38333	-394
28.39167	-389
28.40000	-384
28.40833	-378
28.41667	-371
28.42500	-363
28.43333	-355
28.44167	-347
28.45000	-338
28.45833	-329
28.46667	-320
28.47500	-310
28.48333	-300
28.49167	-289
28.50000	-278
28.50833	-267
28.51667	-256
28.52500	-245
28.53333	-234
28.54167	-223
28.55000	-212
28.55833	-201
28.56667	-191
28.57500	-180
28.58333	-170
28.59167	-160
28.60000	-150
28.60833	-141
28.61667	-132
28.62500	-123
28.63333	-115
28.64167	-107
28.65000	-99
28.65833	-92
28.66667	-84
28.67500	-77
28.68333	-71
28.69167	-65
28.70000	-59
28.70833	-54
28.71667	-49
28.72500	-45
28.73333	-40
28.74167	-36
28.75000	-33
28.75833	-29
28.76667	-26
28.77500	-22
28.78333	-19
28.79167	-17
28.80000	-14
28.80833	-12
28.81667	-10
28.82500	-8
28.83333	-6
28.84167	-4
28.85000	-3
28.85833	-2
28.86667	-0
28.87500	1
28.88333	2
28.89167	3
28.90000	4
28.90833	4
28.91667	5
28.92500	5
28.93333	6
28.94167	6
28.95000	7
28.95833	8
28.96667	8
28.97500	8
28.98333	9
28.99167	9
29.00000	10
29.00833	10
29.01667	11
29.02500	12
29.03333	13
29.04167	13
29.05000	13
29.05833	13
29.06667	14
29.07500	14
29.08333	14
29.09167	15
29.10000	15
29.10833	15
29.11667	15
29.12500	16
29.13333	16
29.14167	16
29.15000	17
29.15833	17
29.16667	17
29.17500	17
29.18333	17
29.19167	17
29.20000	17
29.20833	17
29.21667	17
29.22500	18
29.23333	18
29.24167	19
29.25000	20
29.25833	20
29.26667	20
29.27500	21
29.28333	21
29.29167	21
29.30000	21
29.30833	21
29.31667	22
29.32500	22
29.33333	22
29.34167	23
29.35000	23
29.35833	23
29.36667	24
29.37500	24
29.38333	24
29.39167	24
29.40000	24
29.40833	24
29.41667	24
29.42500	24
29.43333	24
29.44167	25
29.45000	25
29.45833	25
29.46667	25
29.47500	25
29.48333	25
29.49167	26
29.50000	26
29.50833	27
29.51667	28
29.52500	28
29.53333	28
29.54167	29
29.55000	29
29.55833	29
29.56667	29
29.57500	29
29.58333	29
29.59167	29
29.60000	30
29.60833	30
29.61667	30
29.62500	31
29.63333	31
29.64167	31
29.65000	31
29.65833	31
29.66667	31
29.67500	31
29.68333	31
29.69167	32
29.70000	32
29.70833	32
29.71667	33
29.72500	33
29.73333	33
29.74167	33
29.75000	33
29.75833	34
29.76667	34
29.77500	34
29.78333	34
29.79167	34
29.80000	34
29.80833	34
29.81667	34
29.82500	35
29.83333	35
29.84167	36
29.85000	36
29.85833	37
29.86667	37
29.87500	37
29.88333	37
29.89167	37
29.90000	38
29.90833	38
29.91667	39
29.92500	39
29.93333	40
29.94167	40
29.95000	41
29.95833	41
29.96667	42
29.97500	41
29.98333	41
29.99167	42
30.00000	42

