[Header]
Application Name	LabSolutions
Version	5.92
Data File Name	C:\Samples\20260116_2-000_S-PNIPAM_DMF.lcd
Output Date	2026/01/16
Output Time	14:32:03

[Configuration]
Instrument Name	LC_1
Instrument #	1
Line #	1
# of Detectors	2
Detector ID	Detector A	Detector B
Detector Name	åüèoäÌA	åüèoäÌB
# of Channels	1	1

[Average Molecular Weight Table(Detector A)]
# of Peaks	11
Peak#	Mn	Mw	Mz	Mz1	Mv	Mw/Mn	Mv/Mn	Mz/Mw	I.Visc	%
Total	0	1672	5778	7730	0	315237.48609	0.00000	3.45599	1.00000	100.0000
1	6277	6851	7579	8463	0	1.09139	0.00000	1.10633	1.00000	16.1435
2	2165	2480	2785	3044	0	1.14524	0.00000	1.12320	1.00000	17.5268
3	860	881	902	922	0	1.02440	0.00000	1.02353	1.00000	4.0638
4	412	425	439	452	0	1.03121	0.00000	1.03151	1.00000	16.6423
5	203	211	220	227	0	1.04280	0.00000	1.03925	1.00000	6.9931
6	126	126	126	127	0	1.00204	0.00000	1.00204	1.00000	0.9459
7	53	60	68	76	0	1.13393	0.00000	1.13638	1.00000	12.4301
8	26	26	26	26	0	1.00807	0.00000	1.00795	1.00000	2.0911
9	16	16	17	17	0	1.03159	0.00000	1.02925	1.00000	4.7945
10	3	3	4	4	0	1.08716	0.00000	1.07516	1.00000	0.4964
11	0	0	0	0	0	1.27250	0.00000	1.25298	1.00000	17.8724

[Average Molecular Weight Table(Detector B)]
# of Peaks	6
Peak#	Mn	Mw	Mz	Mz1	Mv	Mw/Mn	Mv/Mn	Mz/Mw	I.Visc	%
Total	0	9895	18505	23724	0	45796.05478	0.00000	1.87026	1.00000	100.0000
1	8825	13574	18590	23725	0	1.53813	0.00000	1.36955	1.00000	72.5604
2	491	493	495	498	0	1.00440	0.00000	1.00446	1.00000	0.2840
3	195	203	212	223	0	1.03843	0.00000	1.04466	1.00000	21.6599
4	19	20	20	21	0	1.02653	0.00000	1.02726	1.00000	0.2253
5	8	9	9	10	0	1.06939	0.00000	1.06589	1.00000	1.3655
6	0	0	0	0	0	1.44283	0.00000	1.33712	1.00000	3.9048

[LC Chromatogram(Detector A-Ch1)]
Interval(msec)	500
# of Points	3601
Start Time(min)	0.000
End Time(min)	30.000
Intensity Units	mV
Intensity Multiplier	0.001
Wavelength(nm)	270nm
R.Time (min)	Intensity
0.00000	-961
0.00833	-961
0.01667	-114
0.02500	2
0.03333	2
0.04167	3
0.05000	4
0.05833	5
0.06667	5
0.07500	4
0.08333	4
0.09167	1
0.10000	-3
0.10833	-6
0.11667	-7
0.12500	-6
0.13333	-7
0.14167	-9
0.15000	-10
0.15833	-10
0.16667	-8
0.17500	-8
0.18333	-7
0.19167	-8
0.20000	-10
0.20833	-12
0.21667	-14
0.22500	-14
0.23333	-15
0.24167	-11
0.25000	-10
0.25833	-12
0.26667	-17
0.27500	-20
0.28333	-20
0.29167	-21
0.30000	-21
0.30833	-21
0.31667	-22
0.32500	-21
0.33333	-20
0.34167	-18
0.35000	-19
0.35833	-19
0.36667	-21
0.37500	-24
0.38333	-24
0.39167	-23
0.40000	-23
0.40833	-23
0.41667	-27
0.42500	-29
0.43333	-29
0.44167	-30
0.45000	-31
0.45833	-30
0.46667	-32
0.47500	-34
0.48333	-35
0.49167	-36
0.50000	-35
0.50833	-37
0.51667	-39
0.52500	-41
0.53333	-41
0.54167	-39
0.55000	-38
0.55833	-40
0.56667	-42
0.57500	-43
0.58333	-42
0.59167	-41
0.60000	-40
0.60833	-42
0.61667	-43
0.62500	-44
0.63333	-44
0.64167	-47
0.65000	-49
0.65833	-50
0.66667	-50
0.67500	-48
0.68333	-47
0.69167	-47
0.70000	-48
0.70833	-49
0.71667	-51
0.72500	-52
0.73333	-52
0.74167	-53
0.75000	-53
0.75833	-55
0.76667	-57
0.77500	-59
0.78333	-59
0.79167	-56
0.80000	-55
0.80833	-56
0.81667	-56
0.82500	-57
0.83333	-57
0.84167	-59
0.85000	-62
0.85833	-63
0.86667	-63
0.87500	-64
0.88333	-64
0.89167	-63
0.90000	-63
0.90833	-66
0.91667	-69
0.92500	-70
0.93333	-69
0.94167	-70
0.95000	-71
0.95833	-73
0.96667	-75
0.97500	-77
0.98333	-78
0.99167	-76
1.00000	-74
1.00833	-75
1.01667	-76
1.02500	-76
1.03333	-77
1.04167	-77
1.05000	-76
1.05833	-76
1.06667	-76
1.07500	-76
1.08333	-75
1.09167	-77
1.10000	-77
1.10833	-77
1.11667	-79
1.12500	-81
1.13333	-81
1.14167	-83
1.15000	-85
1.15833	-85
1.16667	-83
1.17500	-81
1.18333	-81
1.19167	-82
1.20000	-83
1.20833	-84
1.21667	-85
1.22500	-86
1.23333	-87
1.24167	-86
1.25000	-85
1.25833	-86
1.26667	-87
1.27500	-90
1.28333	-95
1.29167	-98
1.30000	-99
1.30833	-100
1.31667	-100
1.32500	-102
1.33333	-104
1.34167	-106
1.35000	-107
1.35833	-107
1.36667	-107
1.37500	-106
1.38333	-109
1.39167	-109
1.40000	-109
1.40833	-109
1.41667	-109
1.42500	-108
1.43333	-108
1.44167	-106
1.45000	-106
1.45833	-105
1.46667	-105
1.47500	-106
1.48333	-105
1.49167	-105
1.50000	-104
1.50833	-107
1.51667	-112
1.52500	-114
1.53333	-115
1.54167	-114
1.55000	-112
1.55833	-111
1.56667	-112
1.57500	-113
1.58333	-114
1.59167	-116
1.60000	-120
1.60833	-121
1.61667	-121
1.62500	-120
1.63333	-120
1.64167	-120
1.65000	-120
1.65833	-119
1.66667	-121
1.67500	-122
1.68333	-120
1.69167	-119
1.70000	-119
1.70833	-120
1.71667	-123
1.72500	-124
1.73333	-125
1.74167	-124
1.75000	-124
1.75833	-124
1.76667	-124
1.77500	-125
1.78333	-124
1.79167	-124
1.80000	-127
1.80833	-130
1.81667	-132
1.82500	-130
1.83333	-128
1.84167	-127
1.85000	-127
1.85833	-127
1.86667	-130
1.87500	-131
1.88333	-130
1.89167	-130
1.90000	-131
1.90833	-132
1.91667	-135
1.92500	-137
1.93333	-137
1.94167	-136
1.95000	-135
1.95833	-134
1.96667	-135
1.97500	-137
1.98333	-138
1.99167	-138
2.00000	-139
2.00833	-139
2.01667	-137
2.02500	-136
2.03333	-138
2.04167	-140
2.05000	-143
2.05833	-145
2.06667	-145
2.07500	-144
2.08333	-145
2.09167	-145
2.10000	-147
2.10833	-149
2.11667	-149
2.12500	-148
2.13333	-147
2.14167	-147
2.15000	-146
2.15833	-146
2.16667	-145
2.17500	-146
2.18333	-145
2.19167	-143
2.20000	-141
2.20833	-142
2.21667	-142
2.22500	-143
2.23333	-143
2.24167	-144
2.25000	-143
2.25833	-141
2.26667	-141
2.27500	-142
2.28333	-145
2.29167	-147
2.30000	-147
2.30833	-148
2.31667	-149
2.32500	-149
2.33333	-148
2.34167	-147
2.35000	-148
2.35833	-151
2.36667	-151
2.37500	-152
2.38333	-154
2.39167	-153
2.40000	-151
2.40833	-151
2.41667	-151
2.42500	-153
2.43333	-153
2.44167	-153
2.45000	-154
2.45833	-154
2.46667	-154
2.47500	-154
2.48333	-153
2.49167	-155
2.50000	-158
2.50833	-157
2.51667	-157
2.52500	-159
2.53333	-159
2.54167	-159
2.55000	-160
2.55833	-161
2.56667	-161
2.57500	-159
2.58333	-158
2.59167	-160
2.60000	-160
2.60833	-159
2.61667	-160
2.62500	-162
2.63333	-164
2.64167	-167
2.65000	-167
2.65833	-165
2.66667	-165
2.67500	-165
2.68333	-164
2.69167	-162
2.70000	-161
2.70833	-159
2.71667	-161
2.72500	-163
2.73333	-164
2.74167	-163
2.75000	-161
2.75833	-162
2.76667	-163
2.77500	-161
2.78333	-161
2.79167	-162
2.80000	-164
2.80833	-166
2.81667	-166
2.82500	-166
2.83333	-166
2.84167	-166
2.85000	-166
2.85833	-166
2.86667	-165
2.87500	-166
2.88333	-167
2.89167	-166
2.90000	-167
2.90833	-168
2.91667	-168
2.92500	-167
2.93333	-166
2.94167	-165
2.95000	-166
2.95833	-166
2.96667	-166
2.97500	-167
2.98333	-169
2.99167	-170
3.00000	-169
3.00833	-168
3.01667	-168
3.02500	-167
3.03333	-166
3.04167	-167
3.05000	-168
3.05833	-169
3.06667	-168
3.07500	-169
3.08333	-170
3.09167	-169
3.10000	-169
3.10833	-171
3.11667	-173
3.12500	-174
3.13333	-173
3.14167	-171
3.15000	-168
3.15833	-167
3.16667	-167
3.17500	-167
3.18333	-168
3.19167	-169
3.20000	-169
3.20833	-171
3.21667	-174
3.22500	-175
3.23333	-174
3.24167	-171
3.25000	-170
3.25833	-170
3.26667	-169
3.27500	-167
3.28333	-165
3.29167	-166
3.30000	-166
3.30833	-165
3.31667	-163
3.32500	-161
3.33333	-160
3.34167	-162
3.35000	-163
3.35833	-163
3.36667	-164
3.37500	-165
3.38333	-165
3.39167	-165
3.40000	-165
3.40833	-165
3.41667	-166
3.42500	-167
3.43333	-166
3.44167	-163
3.45000	-162
3.45833	-163
3.46667	-164
3.47500	-163
3.48333	-164
3.49167	-167
3.50000	-169
3.50833	-169
3.51667	-169
3.52500	-170
3.53333	-170
3.54167	-171
3.55000	-171
3.55833	-171
3.56667	-171
3.57500	-170
3.58333	-170
3.59167	-172
3.60000	-172
3.60833	-171
3.61667	-171
3.62500	-172
3.63333	-170
3.64167	-169
3.65000	-169
3.65833	-169
3.66667	-169
3.67500	-172
3.68333	-175
3.69167	-177
3.70000	-179
3.70833	-181
3.71667	-181
3.72500	-180
3.73333	-176
3.74167	-173
3.75000	-172
3.75833	-173
3.76667	-174
3.77500	-175
3.78333	-175
3.79167	-173
3.80000	-170
3.80833	-170
3.81667	-170
3.82500	-170
3.83333	-173
3.84167	-174
3.85000	-174
3.85833	-175
3.86667	-179
3.87500	-180
3.88333	-178
3.89167	-178
3.90000	-179
3.90833	-177
3.91667	-176
3.92500	-176
3.93333	-176
3.94167	-177
3.95000	-177
3.95833	-179
3.96667	-181
3.97500	-182
3.98333	-181
3.99167	-181
4.00000	-182
4.00833	-182
4.01667	-182
4.02500	-180
4.03333	-178
4.04167	-176
4.05000	-177
4.05833	-180
4.06667	-182
4.07500	-184
4.08333	-184
4.09167	-184
4.10000	-184
4.10833	-184
4.11667	-183
4.12500	-182
4.13333	-183
4.14167	-183
4.15000	-184
4.15833	-184
4.16667	-183
4.17500	-182
4.18333	-180
4.19167	-179
4.20000	-179
4.20833	-179
4.21667	-177
4.22500	-178
4.23333	-180
4.24167	-180
4.25000	-179
4.25833	-181
4.26667	-185
4.27500	-188
4.28333	-189
4.29167	-189
4.30000	-190
4.30833	-190
4.31667	-190
4.32500	-189
4.33333	-190
4.34167	-191
4.35000	-190
4.35833	-190
4.36667	-190
4.37500	-188
4.38333	-185
4.39167	-185
4.40000	-186
4.40833	-189
4.41667	-192
4.42500	-192
4.43333	-189
4.44167	-187
4.45000	-187
4.45833	-187
4.46667	-187
4.47500	-189
4.48333	-191
4.49167	-193
4.50000	-194
4.50833	-196
4.51667	-196
4.52500	-193
4.53333	-191
4.54167	-192
4.55000	-192
4.55833	-192
4.56667	-192
4.57500	-193
4.58333	-191
4.59167	-189
4.60000	-188
4.60833	-188
4.61667	-189
4.62500	-191
4.63333	-193
4.64167	-191
4.65000	-190
4.65833	-190
4.66667	-191
4.67500	-191
4.68333	-190
4.69167	-189
4.70000	-189
4.70833	-192
4.71667	-196
4.72500	-196
4.73333	-196
4.74167	-197
4.75000	-197
4.75833	-197
4.76667	-198
4.77500	-197
4.78333	-195
4.79167	-194
4.80000	-194
4.80833	-191
4.81667	-191
4.82500	-193
4.83333	-193
4.84167	-193
4.85000	-193
4.85833	-196
4.86667	-197
4.87500	-193
4.88333	-189
4.89167	-188
4.90000	-190
4.90833	-191
4.91667	-191
4.92500	-191
4.93333	-191
4.94167	-191
4.95000	-191
4.95833	-191
4.96667	-192
4.97500	-193
4.98333	-193
4.99167	-192
5.00000	-191
5.00833	-191
5.01667	-192
5.02500	-191
5.03333	-190
5.04167	-188
5.05000	-188
5.05833	-188
5.06667	-187
5.07500	-186
5.08333	-189
5.09167	-190
5.10000	-189
5.10833	-189
5.11667	-190
5.12500	-191
5.13333	-191
5.14167	-192
5.15000	-192
5.15833	-195
5.16667	-196
5.17500	-195
5.18333	-194
5.19167	-193
5.20000	-192
5.20833	-191
5.21667	-189
5.22500	-190
5.23333	-192
5.24167	-194
5.25000	-196
5.25833	-197
5.26667	-197
5.27500	-195
5.28333	-194
5.29167	-194
5.30000	-194
5.30833	-193
5.31667	-192
5.32500	-191
5.33333	-192
5.34167	-194
5.35000	-194
5.35833	-193
5.36667	-194
5.37500	-196
5.38333	-197
5.39167	-194
5.40000	-193
5.40833	-192
5.41667	-192
5.42500	-190
5.43333	-188
5.44167	-184
5.45000	-180
5.45833	-178
5.46667	-177
5.47500	-176
5.48333	-177
5.49167	-178
5.50000	-180
5.50833	-179
5.51667	-177
5.52500	-177
5.53333	-175
5.54167	-173
5.55000	-172
5.55833	-172
5.56667	-174
5.57500	-174
5.58333	-174
5.59167	-173
5.60000	-174
5.60833	-173
5.61667	-173
5.62500	-174
5.63333	-177
5.64167	-177
5.65000	-177
5.65833	-177
5.66667	-175
5.67500	-175
5.68333	-177
5.69167	-178
5.70000	-177
5.70833	-175
5.71667	-172
5.72500	-171
5.73333	-173
5.74167	-174
5.75000	-172
5.75833	-171
5.76667	-168
5.77500	-165
5.78333	-165
5.79167	-163
5.80000	-163
5.80833	-165
5.81667	-165
5.82500	-163
5.83333	-163
5.84167	-163
5.85000	-164
5.85833	-166
5.86667	-167
5.87500	-166
5.88333	-164
5.89167	-163
5.90000	-165
5.90833	-164
5.91667	-164
5.92500	-166
5.93333	-164
5.94167	-162
5.95000	-162
5.95833	-161
5.96667	-161
5.97500	-162
5.98333	-162
5.99167	-162
6.00000	-164
6.00833	-161
6.01667	-158
6.02500	-156
6.03333	-157
6.04167	-158
6.05000	-158
6.05833	-157
6.06667	-157
6.07500	-156
6.08333	-156
6.09167	-158
6.10000	-160
6.10833	-163
6.11667	-165
6.12500	-165
6.13333	-165
6.14167	-164
6.15000	-162
6.15833	-159
6.16667	-159
6.17500	-157
6.18333	-157
6.19167	-157
6.20000	-154
6.20833	-154
6.21667	-157
6.22500	-158
6.23333	-159
6.24167	-160
6.25000	-160
6.25833	-159
6.26667	-158
6.27500	-158
6.28333	-157
6.29167	-154
6.30000	-151
6.30833	-150
6.31667	-150
6.32500	-151
6.33333	-152
6.34167	-154
6.35000	-156
6.35833	-158
6.36667	-156
6.37500	-153
6.38333	-152
6.39167	-150
6.40000	-149
6.40833	-148
6.41667	-148
6.42500	-151
6.43333	-153
6.44167	-154
6.45000	-155
6.45833	-153
6.46667	-152
6.47500	-151
6.48333	-151
6.49167	-150
6.50000	-148
6.50833	-147
6.51667	-145
6.52500	-147
6.53333	-150
6.54167	-152
6.55000	-152
6.55833	-149
6.56667	-147
6.57500	-145
6.58333	-144
6.59167	-146
6.60000	-148
6.60833	-148
6.61667	-146
6.62500	-147
6.63333	-149
6.64167	-149
6.65000	-148
6.65833	-145
6.66667	-144
6.67500	-141
6.68333	-140
6.69167	-142
6.70000	-143
6.70833	-139
6.71667	-137
6.72500	-137
6.73333	-138
6.74167	-137
6.75000	-135
6.75833	-132
6.76667	-131
6.77500	-132
6.78333	-134
6.79167	-133
6.80000	-130
6.80833	-131
6.81667	-131
6.82500	-130
6.83333	-131
6.84167	-132
6.85000	-130
6.85833	-129
6.86667	-130
6.87500	-131
6.88333	-133
6.89167	-131
6.90000	-127
6.90833	-126
6.91667	-128
6.92500	-131
6.93333	-131
6.94167	-128
6.95000	-125
6.95833	-122
6.96667	-122
6.97500	-123
6.98333	-125
6.99167	-125
7.00000	-124
7.00833	-122
7.01667	-121
7.02500	-119
7.03333	-121
7.04167	-120
7.05000	-119
7.05833	-118
7.06667	-118
7.07500	-120
7.08333	-119
7.09167	-119
7.10000	-118
7.10833	-119
7.11667	-118
7.12500	-115
7.13333	-117
7.14167	-121
7.15000	-122
7.15833	-120
7.16667	-117
7.17500	-116
7.18333	-119
7.19167	-120
7.20000	-117
7.20833	-114
7.21667	-113
7.22500	-114
7.23333	-115
7.24167	-115
7.25000	-113
7.25833	-110
7.26667	-110
7.27500	-110
7.28333	-111
7.29167	-111
7.30000	-112
7.30833	-114
7.31667	-115
7.32500	-114
7.33333	-113
7.34167	-112
7.35000	-110
7.35833	-110
7.36667	-109
7.37500	-107
7.38333	-106
7.39167	-105
7.40000	-105
7.40833	-104
7.41667	-106
7.42500	-108
7.43333	-109
7.44167	-109
7.45000	-107
7.45833	-106
7.46667	-105
7.47500	-104
7.48333	-105
7.49167	-106
7.50000	-105
7.50833	-104
7.51667	-105
7.52500	-103
7.53333	-101
7.54167	-101
7.55000	-101
7.55833	-103
7.56667	-104
7.57500	-105
7.58333	-105
7.59167	-101
7.60000	-98
7.60833	-99
7.61667	-99
7.62500	-96
7.63333	-94
7.64167	-95
7.65000	-98
7.65833	-100
7.66667	-100
7.67500	-96
7.68333	-94
7.69167	-92
7.70000	-89
7.70833	-88
7.71667	-88
7.72500	-87
7.73333	-86
7.74167	-86
7.75000	-87
7.75833	-88
7.76667	-88
7.77500	-87
7.78333	-86
7.79167	-85
7.80000	-84
7.80833	-83
7.81667	-83
7.82500	-83
7.83333	-84
7.84167	-84
7.85000	-84
7.85833	-83
7.86667	-83
7.87500	-82
7.88333	-80
7.89167	-76
7.90000	-76
7.90833	-77
7.91667	-78
7.92500	-79
7.93333	-80
7.94167	-80
7.95000	-82
7.95833	-83
7.96667	-83
7.97500	-83
7.98333	-83
7.99167	-83
8.00000	-83
8.00833	-82
8.01667	-83
8.02500	-83
8.03333	-82
8.04167	-80
8.05000	-78
8.05833	-79
8.06667	-79
8.07500	-79
8.08333	-79
8.09167	-79
8.10000	-80
8.10833	-78
8.11667	-78
8.12500	-80
8.13333	-83
8.14167	-83
8.15000	-84
8.15833	-85
8.16667	-86
8.17500	-85
8.18333	-84
8.19167	-83
8.20000	-81
8.20833	-80
8.21667	-80
8.22500	-77
8.23333	-73
8.24167	-70
8.25000	-68
8.25833	-67
8.26667	-66
8.27500	-66
8.28333	-67
8.29167	-68
8.30000	-70
8.30833	-72
8.31667	-72
8.32500	-70
8.33333	-68
8.34167	-66
8.35000	-66
8.35833	-67
8.36667	-68
8.37500	-69
8.38333	-68
8.39167	-69
8.40000	-68
8.40833	-67
8.41667	-66
8.42500	-65
8.43333	-65
8.44167	-65
8.45000	-65
8.45833	-64
8.46667	-63
8.47500	-61
8.48333	-61
8.49167	-61
8.50000	-62
8.50833	-61
8.51667	-61
8.52500	-61
8.53333	-61
8.54167	-61
8.55000	-60
8.55833	-59
8.56667	-58
8.57500	-58
8.58333	-59
8.59167	-57
8.60000	-55
8.60833	-55
8.61667	-56
8.62500	-59
8.63333	-61
8.64167	-60
8.65000	-59
8.65833	-59
8.66667	-61
8.67500	-61
8.68333	-61
8.69167	-61
8.70000	-60
8.70833	-61
8.71667	-61
8.72500	-61
8.73333	-60
8.74167	-60
8.75000	-59
8.75833	-57
8.76667	-57
8.77500	-57
8.78333	-59
8.79167	-62
8.80000	-65
8.80833	-65
8.81667	-63
8.82500	-60
8.83333	-58
8.84167	-59
8.85000	-60
8.85833	-61
8.86667	-60
8.87500	-60
8.88333	-59
8.89167	-58
8.90000	-58
8.90833	-58
8.91667	-60
8.92500	-61
8.93333	-59
8.94167	-58
8.95000	-56
8.95833	-54
8.96667	-55
8.97500	-54
8.98333	-54
8.99167	-54
9.00000	-54
9.00833	-55
9.01667	-55
9.02500	-56
9.03333	-56
9.04167	-56
9.05000	-53
9.05833	-52
9.06667	-51
9.07500	-51
9.08333	-50
9.09167	-50
9.10000	-54
9.10833	-58
9.11667	-58
9.12500	-56
9.13333	-54
9.14167	-53
9.15000	-53
9.15833	-53
9.16667	-53
9.17500	-53
9.18333	-53
9.19167	-53
9.20000	-53
9.20833	-54
9.21667	-54
9.22500	-54
9.23333	-55
9.24167	-55
9.25000	-52
9.25833	-52
9.26667	-54
9.27500	-57
9.28333	-58
9.29167	-56
9.30000	-54
9.30833	-52
9.31667	-52
9.32500	-51
9.33333	-52
9.34167	-51
9.35000	-45
9.35833	-38
9.36667	-36
9.37500	-33
9.38333	-30
9.39167	-33
9.40000	-34
9.40833	-34
9.41667	-32
9.42500	-31
9.43333	-29
9.44167	-29
9.45000	-28
9.45833	-27
9.46667	-28
9.47500	-28
9.48333	-27
9.49167	-27
9.50000	-28
9.50833	-27
9.51667	-29
9.52500	-29
9.53333	-29
9.54167	-30
9.55000	-32
9.55833	-30
9.56667	-29
9.57500	-30
9.58333	-31
9.59167	-32
9.60000	-32
9.60833	-34
9.61667	-32
9.62500	-30
9.63333	-29
9.64167	-29
9.65000	-29
9.65833	-29
9.66667	-30
9.67500	-31
9.68333	-30
9.69167	-30
9.70000	-30
9.70833	-32
9.71667	-33
9.72500	-33
9.73333	-34
9.74167	-38
9.75000	-40
9.75833	-39
9.76667	-38
9.77500	-37
9.78333	-37
9.79167	-36
9.80000	-34
9.80833	-33
9.81667	-32
9.82500	-33
9.83333	-35
9.84167	-37
9.85000	-38
9.85833	-37
9.86667	-36
9.87500	-35
9.88333	-36
9.89167	-37
9.90000	-39
9.90833	-39
9.91667	-39
9.92500	-39
9.93333	-37
9.94167	-37
9.95000	-39
9.95833	-40
9.96667	-41
9.97500	-42
9.98333	-40
9.99167	-37
10.00000	-36
10.00833	-37
10.01667	-38
10.02500	-38
10.03333	-36
10.04167	-35
10.05000	-36
10.05833	-38
10.06667	-40
10.07500	-42
10.08333	-43
10.09167	-45
10.10000	-46
10.10833	-45
10.11667	-44
10.12500	-45
10.13333	-45
10.14167	-43
10.15000	-43
10.15833	-43
10.16667	-43
10.17500	-44
10.18333	-44
10.19167	-42
10.20000	-42
10.20833	-44
10.21667	-46
10.22500	-44
10.23333	-44
10.24167	-46
10.25000	-45
10.25833	-43
10.26667	-41
10.27500	-39
10.28333	-39
10.29167	-38
10.30000	-38
10.30833	-38
10.31667	-40
10.32500	-40
10.33333	-41
10.34167	-42
10.35000	-42
10.35833	-41
10.36667	-42
10.37500	-44
10.38333	-46
10.39167	-46
10.40000	-46
10.40833	-45
10.41667	-44
10.42500	-43
10.43333	-41
10.44167	-38
10.45000	-36
10.45833	-36
10.46667	-39
10.47500	-41
10.48333	-41
10.49167	-41
10.50000	-40
10.50833	-38
10.51667	-38
10.52500	-39
10.53333	-42
10.54167	-43
10.55000	-42
10.55833	-40
10.56667	-38
10.57500	-38
10.58333	-38
10.59167	-38
10.60000	-38
10.60833	-38
10.61667	-40
10.62500	-39
10.63333	-39
10.64167	-40
10.65000	-38
10.65833	-36
10.66667	-34
10.67500	-32
10.68333	-33
10.69167	-33
10.70000	-34
10.70833	-36
10.71667	-36
10.72500	-36
10.73333	-35
10.74167	-34
10.75000	-35
10.75833	-36
10.76667	-38
10.77500	-37
10.78333	-35
10.79167	-34
10.80000	-32
10.80833	-31
10.81667	-32
10.82500	-34
10.83333	-37
10.84167	-39
10.85000	-37
10.85833	-35
10.86667	-35
10.87500	-35
10.88333	-36
10.89167	-35
10.90000	-34
10.90833	-33
10.91667	-32
10.92500	-31
10.93333	-31
10.94167	-32
10.95000	-32
10.95833	-33
10.96667	-33
10.97500	-32
10.98333	-32
10.99167	-31
11.00000	-31
11.00833	-31
11.01667	-30
11.02500	-29
11.03333	-29
11.04167	-28
11.05000	-25
11.05833	-26
11.06667	-27
11.07500	-29
11.08333	-30
11.09167	-30
11.10000	-31
11.10833	-32
11.11667	-31
11.12500	-29
11.13333	-30
11.14167	-32
11.15000	-32
11.15833	-31
11.16667	-31
11.17500	-34
11.18333	-34
11.19167	-34
11.20000	-34
11.20833	-33
11.21667	-32
11.22500	-31
11.23333	-31
11.24167	-32
11.25000	-32
11.25833	-32
11.26667	-32
11.27500	-33
11.28333	-34
11.29167	-35
11.30000	-34
11.30833	-34
11.31667	-32
11.32500	-31
11.33333	-31
11.34167	-31
11.35000	-34
11.35833	-35
11.36667	-35
11.37500	-34
11.38333	-32
11.39167	-30
11.40000	-32
11.40833	-34
11.41667	-35
11.42500	-33
11.43333	-31
11.44167	-29
11.45000	-28
11.45833	-28
11.46667	-29
11.47500	-29
11.48333	-30
11.49167	-31
11.50000	-32
11.50833	-33
11.51667	-35
11.52500	-35
11.53333	-35
11.54167	-36
11.55000	-36
11.55833	-38
11.56667	-38
11.57500	-37
11.58333	-39
11.59167	-41
11.60000	-43
11.60833	-42
11.61667	-41
11.62500	-41
11.63333	-42
11.64167	-43
11.65000	-42
11.65833	-43
11.66667	-44
11.67500	-44
11.68333	-43
11.69167	-43
11.70000	-45
11.70833	-47
11.71667	-48
11.72500	-48
11.73333	-48
11.74167	-49
11.75000	-50
11.75833	-52
11.76667	-53
11.77500	-54
11.78333	-54
11.79167	-55
11.80000	-54
11.80833	-53
11.81667	-53
11.82500	-52
11.83333	-51
11.84167	-51
11.85000	-51
11.85833	-51
11.86667	-55
11.87500	-56
11.88333	-57
11.89167	-59
11.90000	-61
11.90833	-63
11.91667	-66
11.92500	-65
11.93333	-64
11.94167	-64
11.95000	-63
11.95833	-64
11.96667	-65
11.97500	-63
11.98333	-62
11.99167	-63
12.00000	-65
12.00833	-66
12.01667	-68
12.02500	-68
12.03333	-68
12.04167	-69
12.05000	-69
12.05833	-68
12.06667	-67
12.07500	-66
12.08333	-68
12.09167	-70
12.10000	-71
12.10833	-72
12.11667	-72
12.12500	-69
12.13333	-69
12.14167	-67
12.15000	-64
12.15833	-65
12.16667	-67
12.17500	-69
12.18333	-68
12.19167	-65
12.20000	-63
12.20833	-64
12.21667	-64
12.22500	-60
12.23333	-59
12.24167	-59
12.25000	-57
12.25833	-55
12.26667	-56
12.27500	-57
12.28333	-56
12.29167	-56
12.30000	-57
12.30833	-55
12.31667	-55
12.32500	-55
12.33333	-57
12.34167	-55
12.35000	-52
12.35833	-53
12.36667	-55
12.37500	-57
12.38333	-58
12.39167	-59
12.40000	-61
12.40833	-62
12.41667	-63
12.42500	-60
12.43333	-58
12.44167	-58
12.45000	-60
12.45833	-62
12.46667	-63
12.47500	-64
12.48333	-66
12.49167	-65
12.50000	-66
12.50833	-65
12.51667	-64
12.52500	-63
12.53333	-63
12.54167	-65
12.55000	-67
12.55833	-67
12.56667	-67
12.57500	-67
12.58333	-65
12.59167	-64
12.60000	-64
12.60833	-65
12.61667	-64
12.62500	-64
12.63333	-67
12.64167	-67
12.65000	-67
12.65833	-68
12.66667	-68
12.67500	-69
12.68333	-70
12.69167	-69
12.70000	-69
12.70833	-69
12.71667	-68
12.72500	-68
12.73333	-68
12.74167	-66
12.75000	-67
12.75833	-68
12.76667	-68
12.77500	-63
12.78333	-62
12.79167	-63
12.80000	-62
12.80833	-62
12.81667	-64
12.82500	-66
12.83333	-66
12.84167	-64
12.85000	-64
12.85833	-65
12.86667	-67
12.87500	-67
12.88333	-66
12.89167	-67
12.90000	-69
12.90833	-69
12.91667	-67
12.92500	-65
12.93333	-63
12.94167	-62
12.95000	-61
12.95833	-61
12.96667	-62
12.97500	-64
12.98333	-66
12.99167	-67
13.00000	-66
13.00833	-64
13.01667	-63
13.02500	-62
13.03333	-62
13.04167	-63
13.05000	-66
13.05833	-65
13.06667	-63
13.07500	-61
13.08333	-63
13.09167	-64
13.10000	-64
13.10833	-65
13.11667	-66
13.12500	-65
13.13333	-65
13.14167	-65
13.15000	-65
13.15833	-65
13.16667	-65
13.17500	-65
13.18333	-65
13.19167	-66
13.20000	-67
13.20833	-69
13.21667	-69
13.22500	-71
13.23333	-72
13.24167	-70
13.25000	-69
13.25833	-67
13.26667	-68
13.27500	-67
13.28333	-66
13.29167	-67
13.30000	-69
13.30833	-71
13.31667	-70
13.32500	-68
13.33333	-66
13.34167	-64
13.35000	-63
13.35833	-61
13.36667	-61
13.37500	-62
13.38333	-66
13.39167	-68
13.40000	-69
13.40833	-69
13.41667	-69
13.42500	-69
13.43333	-67
13.44167	-66
13.45000	-64
13.45833	-65
13.46667	-67
13.47500	-69
13.48333	-72
13.49167	-73
13.50000	-72
13.50833	-73
13.51667	-75
13.52500	-76
13.53333	-76
13.54167	-77
13.55000	-77
13.55833	-78
13.56667	-79
13.57500	-77
13.58333	-73
13.59167	-70
13.60000	-70
13.60833	-70
13.61667	-71
13.62500	-72
13.63333	-75
13.64167	-76
13.65000	-73
13.65833	-73
13.66667	-75
13.67500	-75
13.68333	-74
13.69167	-72
13.70000	-71
13.70833	-70
13.71667	-70
13.72500	-71
13.73333	-71
13.74167	-69
13.75000	-68
13.75833	-70
13.76667	-71
13.77500	-72
13.78333	-71
13.79167	-72
13.80000	-74
13.80833	-75
13.81667	-75
13.82500	-77
13.83333	-78
13.84167	-80
13.85000	-80
13.85833	-82
13.86667	-82
13.87500	-80
13.88333	-81
13.89167	-81
13.90000	-80
13.90833	-78
13.91667	-78
13.92500	-81
13.93333	-83
13.94167	-81
13.95000	-82
13.95833	-82
13.96667	-80
13.97500	-81
13.98333	-83
13.99167	-83
14.00000	-81
14.00833	-80
14.01667	-80
14.02500	-80
14.03333	-80
14.04167	-79
14.05000	-80
14.05833	-81
14.06667	-82
14.07500	-81
14.08333	-78
14.09167	-77
14.10000	-76
14.10833	-77
14.11667	-77
14.12500	-76
14.13333	-76
14.14167	-78
14.15000	-79
14.15833	-80
14.16667	-81
14.17500	-79
14.18333	-77
14.19167	-74
14.20000	-72
14.20833	-72
14.21667	-72
14.22500	-70
14.23333	-69
14.24167	-67
14.25000	-67
14.25833	-69
14.26667	-71
14.27500	-72
14.28333	-71
14.29167	-71
14.30000	-71
14.30833	-70
14.31667	-70
14.32500	-70
14.33333	-68
14.34167	-68
14.35000	-70
14.35833	-71
14.36667	-71
14.37500	-70
14.38333	-69
14.39167	-69
14.40000	-70
14.40833	-72
14.41667	-73
14.42500	-73
14.43333	-73
14.44167	-74
14.45000	-74
14.45833	-76
14.46667	-75
14.47500	-73
14.48333	-72
14.49167	-72
14.50000	-73
14.50833	-72
14.51667	-70
14.52500	-68
14.53333	-68
14.54167	-69
14.55000	-70
14.55833	-72
14.56667	-74
14.57500	-75
14.58333	-75
14.59167	-74
14.60000	-74
14.60833	-76
14.61667	-77
14.62500	-75
14.63333	-74
14.64167	-74
14.65000	-72
14.65833	-73
14.66667	-74
14.67500	-74
14.68333	-77
14.69167	-78
14.70000	-78
14.70833	-77
14.71667	-78
14.72500	-77
14.73333	-77
14.74167	-75
14.75000	-73
14.75833	-73
14.76667	-73
14.77500	-75
14.78333	-77
14.79167	-79
14.80000	-78
14.80833	-76
14.81667	-74
14.82500	-76
14.83333	-77
14.84167	-77
14.85000	-76
14.85833	-74
14.86667	-74
14.87500	-79
14.88333	-82
14.89167	-82
14.90000	-79
14.90833	-77
14.91667	-75
14.92500	-75
14.93333	-75
14.94167	-76
14.95000	-79
14.95833	-80
14.96667	-80
14.97500	-78
14.98333	-78
14.99167	-79
15.00000	-79
15.00833	-78
15.01667	-77
15.02500	-76
15.03333	-76
15.04167	-76
15.05000	-77
15.05833	-76
15.06667	-73
15.07500	-73
15.08333	-73
15.09167	-74
15.10000	-75
15.10833	-76
15.11667	-76
15.12500	-75
15.13333	-75
15.14167	-75
15.15000	-74
15.15833	-75
15.16667	-77
15.17500	-77
15.18333	-75
15.19167	-74
15.20000	-73
15.20833	-74
15.21667	-75
15.22500	-73
15.23333	-72
15.24167	-73
15.25000	-74
15.25833	-73
15.26667	-71
15.27500	-71
15.28333	-72
15.29167	-72
15.30000	-72
15.30833	-70
15.31667	-69
15.32500	-68
15.33333	-66
15.34167	-64
15.35000	-60
15.35833	-58
15.36667	-59
15.37500	-60
15.38333	-59
15.39167	-58
15.40000	-55
15.40833	-54
15.41667	-55
15.42500	-54
15.43333	-52
15.44167	-49
15.45000	-46
15.45833	-42
15.46667	-40
15.47500	-40
15.48333	-41
15.49167	-42
15.50000	-42
15.50833	-40
15.51667	-39
15.52500	-37
15.53333	-35
15.54167	-31
15.55000	-28
15.55833	-26
15.56667	-25
15.57500	-22
15.58333	-20
15.59167	-17
15.60000	-13
15.60833	-9
15.61667	-5
15.62500	-2
15.63333	-1
15.64167	1
15.65000	2
15.65833	6
15.66667	11
15.67500	12
15.68333	12
15.69167	15
15.70000	17
15.70833	19
15.71667	24
15.72500	29
15.73333	31
15.74167	35
15.75000	38
15.75833	40
15.76667	43
15.77500	49
15.78333	55
15.79167	59
15.80000	63
15.80833	67
15.81667	71
15.82500	75
15.83333	80
15.84167	86
15.85000	92
15.85833	97
15.86667	100
15.87500	101
15.88333	104
15.89167	109
15.90000	115
15.90833	121
15.91667	128
15.92500	133
15.93333	138
15.94167	143
15.95000	147
15.95833	149
15.96667	153
15.97500	157
15.98333	165
15.99167	173
16.00000	181
16.00833	189
16.01667	195
16.02500	199
16.03333	205
16.04167	213
16.05000	222
16.05833	230
16.06667	238
16.07500	245
16.08333	255
16.09167	264
16.10000	271
16.10833	278
16.11667	283
16.12500	291
16.13333	303
16.14167	314
16.15000	325
16.15833	333
16.16667	341
16.17500	349
16.18333	360
16.19167	372
16.20000	384
16.20833	394
16.21667	405
16.22500	417
16.23333	431
16.24167	442
16.25000	453
16.25833	463
16.26667	474
16.27500	484
16.28333	498
16.29167	514
16.30000	530
16.30833	546
16.31667	561
16.32500	575
16.33333	590
16.34167	606
16.35000	620
16.35833	637
16.36667	653
16.37500	669
16.38333	685
16.39167	700
16.40000	718
16.40833	736
16.41667	755
16.42500	774
16.43333	795
16.44167	813
16.45000	831
16.45833	847
16.46667	865
16.47500	886
16.48333	905
16.49167	924
16.50000	943
16.50833	962
16.51667	982
16.52500	1001
16.53333	1021
16.54167	1043
16.55000	1066
16.55833	1088
16.56667	1109
16.57500	1128
16.58333	1148
16.59167	1169
16.60000	1192
16.60833	1215
16.61667	1239
16.62500	1260
16.63333	1281
16.64167	1302
16.65000	1323
16.65833	1343
16.66667	1363
16.67500	1385
16.68333	1405
16.69167	1424
16.70000	1444
16.70833	1463
16.71667	1483
16.72500	1505
16.73333	1528
16.74167	1546
16.75000	1563
16.75833	1581
16.76667	1599
16.77500	1617
16.78333	1636
16.79167	1655
16.80000	1674
16.80833	1691
16.81667	1707
16.82500	1725
16.83333	1742
16.84167	1759
16.85000	1776
16.85833	1791
16.86667	1804
16.87500	1817
16.88333	1831
16.89167	1845
16.90000	1859
16.90833	1871
16.91667	1883
16.92500	1897
16.93333	1908
16.94167	1919
16.95000	1930
16.95833	1943
16.96667	1954
16.97500	1965
16.98333	1976
16.99167	1985
17.00000	1994
17.00833	2003
17.01667	2012
17.02500	2019
17.03333	2028
17.04167	2035
17.05000	2041
17.05833	2047
17.06667	2051
17.07500	2055
17.08333	2059
17.09167	2064
17.10000	2070
17.10833	2078
17.11667	2083
17.12500	2085
17.13333	2089
17.14167	2091
17.15000	2095
17.15833	2101
17.16667	2105
17.17500	2107
17.18333	2108
17.19167	2110
17.20000	2115
17.20833	2118
17.21667	2117
17.22500	2118
17.23333	2118
17.24167	2120
17.25000	2123
17.25833	2124
17.26667	2123
17.27500	2124
17.28333	2125
17.29167	2127
17.30000	2127
17.30833	2126
17.31667	2124
17.32500	2125
17.33333	2126
17.34167	2129
17.35000	2129
17.35833	2126
17.36667	2125
17.37500	2123
17.38333	2120
17.39167	2119
17.40000	2118
17.40833	2116
17.41667	2116
17.42500	2116
17.43333	2114
17.44167	2110
17.45000	2109
17.45833	2110
17.46667	2110
17.47500	2107
17.48333	2103
17.49167	2100
17.50000	2098
17.50833	2096
17.51667	2092
17.52500	2090
17.53333	2089
17.54167	2089
17.55000	2088
17.55833	2086
17.56667	2083
17.57500	2081
17.58333	2079
17.59167	2076
17.60000	2074
17.60833	2072
17.61667	2070
17.62500	2068
17.63333	2065
17.64167	2061
17.65000	2056
17.65833	2052
17.66667	2049
17.67500	2047
17.68333	2045
17.69167	2041
17.70000	2036
17.70833	2035
17.71667	2035
17.72500	2036
17.73333	2035
17.74167	2035
17.75000	2030
17.75833	2026
17.76667	2025
17.77500	2023
17.78333	2021
17.79167	2018
17.80000	2016
17.80833	2013
17.81667	2008
17.82500	2006
17.83333	2005
17.84167	2001
17.85000	2000
17.85833	1996
17.86667	1993
17.87500	1991
17.88333	1989
17.89167	1988
17.90000	1985
17.90833	1982
17.91667	1978
17.92500	1974
17.93333	1970
17.94167	1967
17.95000	1965
17.95833	1965
17.96667	1962
17.97500	1959
17.98333	1955
17.99167	1952
18.00000	1952
18.00833	1949
18.01667	1946
18.02500	1943
18.03333	1938
18.04167	1934
18.05000	1931
18.05833	1929
18.06667	1926
18.07500	1923
18.08333	1919
18.09167	1916
18.10000	1914
18.10833	1911
18.11667	1909
18.12500	1904
18.13333	1902
18.14167	1898
18.15000	1894
18.15833	1891
18.16667	1889
18.17500	1886
18.18333	1882
18.19167	1879
18.20000	1877
18.20833	1875
18.21667	1870
18.22500	1864
18.23333	1861
18.24167	1857
18.25000	1854
18.25833	1853
18.26667	1853
18.27500	1851
18.28333	1849
18.29167	1846
18.30000	1842
18.30833	1837
18.31667	1834
18.32500	1830
18.33333	1827
18.34167	1825
18.35000	1819
18.35833	1816
18.36667	1814
18.37500	1812
18.38333	1810
18.39167	1807
18.40000	1803
18.40833	1799
18.41667	1796
18.42500	1793
18.43333	1788
18.44167	1785
18.45000	1780
18.45833	1775
18.46667	1770
18.47500	1767
18.48333	1765
18.49167	1763
18.50000	1761
18.50833	1761
18.51667	1759
18.52500	1758
18.53333	1756
18.54167	1755
18.55000	1750
18.55833	1743
18.56667	1738
18.57500	1733
18.58333	1728
18.59167	1727
18.60000	1725
18.60833	1721
18.61667	1718
18.62500	1714
18.63333	1711
18.64167	1708
18.65000	1706
18.65833	1704
18.66667	1701
18.67500	1697
18.68333	1693
18.69167	1689
18.70000	1690
18.70833	1688
18.71667	1684
18.72500	1681
18.73333	1678
18.74167	1676
18.75000	1674
18.75833	1670
18.76667	1667
18.77500	1663
18.78333	1659
18.79167	1657
18.80000	1654
18.80833	1651
18.81667	1646
18.82500	1641
18.83333	1638
18.84167	1634
18.85000	1629
18.85833	1624
18.86667	1623
18.87500	1623
18.88333	1620
18.89167	1615
18.90000	1610
18.90833	1609
18.91667	1606
18.92500	1601
18.93333	1595
18.94167	1591
18.95000	1588
18.95833	1586
18.96667	1583
18.97500	1579
18.98333	1574
18.99167	1570
19.00000	1567
19.00833	1565
19.01667	1562
19.02500	1560
19.03333	1556
19.04167	1552
19.05000	1549
19.05833	1544
19.06667	1537
19.07500	1532
19.08333	1529
19.09167	1527
19.10000	1525
19.10833	1522
19.11667	1517
19.12500	1512
19.13333	1509
19.14167	1508
19.15000	1505
19.15833	1501
19.16667	1495
19.17500	1491
19.18333	1487
19.19167	1483
19.20000	1481
19.20833	1479
19.21667	1477
19.22500	1474
19.23333	1470
19.24167	1466
19.25000	1462
19.25833	1458
19.26667	1455
19.27500	1452
19.28333	1447
19.29167	1443
19.30000	1440
19.30833	1438
19.31667	1435
19.32500	1431
19.33333	1429
19.34167	1426
19.35000	1423
19.35833	1420
19.36667	1419
19.37500	1418
19.38333	1413
19.39167	1409
19.40000	1404
19.40833	1398
19.41667	1394
19.42500	1391
19.43333	1388
19.44167	1383
19.45000	1378
19.45833	1373
19.46667	1371
19.47500	1371
19.48333	1372
19.49167	1374
19.50000	1374
19.50833	1372
19.51667	1369
19.52500	1366
19.53333	1362
19.54167	1358
19.55000	1354
19.55833	1350
19.56667	1345
19.57500	1342
19.58333	1339
19.59167	1338
19.60000	1334
19.60833	1330
19.61667	1327
19.62500	1324
19.63333	1322
19.64167	1321
19.65000	1316
19.65833	1311
19.66667	1307
19.67500	1304
19.68333	1300
19.69167	1295
19.70000	1290
19.70833	1286
19.71667	1283
19.72500	1281
19.73333	1278
19.74167	1277
19.75000	1273
19.75833	1269
19.76667	1264
19.77500	1260
19.78333	1255
19.79167	1249
19.80000	1245
19.80833	1241
19.81667	1239
19.82500	1237
19.83333	1232
19.84167	1228
19.85000	1226
19.85833	1223
19.86667	1220
19.87500	1215
19.88333	1210
19.89167	1205
19.90000	1198
19.90833	1192
19.91667	1190
19.92500	1189
19.93333	1189
19.94167	1190
19.95000	1189
19.95833	1185
19.96667	1180
19.97500	1174
19.98333	1172
19.99167	1169
20.00000	1165
20.00833	1161
20.01667	1158
20.02500	1155
20.03333	1150
20.04167	1145
20.05000	1144
20.05833	1141
20.06667	1138
20.07500	1137
20.08333	1136
20.09167	1133
20.10000	1130
20.10833	1127
20.11667	1130
20.12500	1134
20.13333	1136
20.14167	1137
20.15000	1140
20.15833	1142
20.16667	1143
20.17500	1145
20.18333	1150
20.19167	1156
20.20000	1163
20.20833	1172
20.21667	1182
20.22500	1193
20.23333	1207
20.24167	1225
20.25000	1247
20.25833	1269
20.26667	1295
20.27500	1327
20.28333	1366
20.29167	1411
20.30000	1464
20.30833	1524
20.31667	1591
20.32500	1669
20.33333	1760
20.34167	1861
20.35000	1972
20.35833	2092
20.36667	2223
20.37500	2368
20.38333	2528
20.39167	2701
20.40000	2886
20.40833	3082
20.41667	3286
20.42500	3497
20.43333	3715
20.44167	3938
20.45000	4162
20.45833	4389
20.46667	4614
20.47500	4835
20.48333	5046
20.49167	5244
20.50000	5430
20.50833	5600
20.51667	5755
20.52500	5893
20.53333	6008
20.54167	6104
20.55000	6177
20.55833	6228
20.56667	6255
20.57500	6261
20.58333	6246
20.59167	6211
20.60000	6155
20.60833	6081
20.61667	5995
20.62500	5896
20.63333	5787
20.64167	5668
20.65000	5539
20.65833	5402
20.66667	5256
20.67500	5108
20.68333	4959
20.69167	4808
20.70000	4658
20.70833	4508
20.71667	4359
20.72500	4214
20.73333	4074
20.74167	3939
20.75000	3809
20.75833	3683
20.76667	3561
20.77500	3443
20.78333	3330
20.79167	3221
20.80000	3117
20.80833	3020
20.81667	2928
20.82500	2841
20.83333	2758
20.84167	2680
20.85000	2606
20.85833	2534
20.86667	2471
20.87500	2415
20.88333	2362
20.89167	2314
20.90000	2270
20.90833	2230
20.91667	2193
20.92500	2160
20.93333	2128
20.94167	2102
20.95000	2080
20.95833	2065
20.96667	2057
20.97500	2049
20.98333	2041
20.99167	2038
21.00000	2039
21.00833	2044
21.01667	2049
21.02500	2057
21.03333	2066
21.04167	2077
21.05000	2091
21.05833	2103
21.06667	2113
21.07500	2126
21.08333	2142
21.09167	2158
21.10000	2172
21.10833	2186
21.11667	2199
21.12500	2212
21.13333	2226
21.14167	2238
21.15000	2248
21.15833	2257
21.16667	2262
21.17500	2266
21.18333	2269
21.19167	2272
21.20000	2274
21.20833	2275
21.21667	2272
21.22500	2268
21.23333	2263
21.24167	2258
21.25000	2251
21.25833	2240
21.26667	2229
21.27500	2216
21.28333	2203
21.29167	2184
21.30000	2161
21.30833	2141
21.31667	2119
21.32500	2097
21.33333	2075
21.34167	2051
21.35000	2027
21.35833	2003
21.36667	1976
21.37500	1947
21.38333	1918
21.39167	1892
21.40000	1865
21.40833	1839
21.41667	1813
21.42500	1787
21.43333	1762
21.44167	1737
21.45000	1715
21.45833	1695
21.46667	1676
21.47500	1657
21.48333	1640
21.49167	1622
21.50000	1606
21.50833	1594
21.51667	1584
21.52500	1573
21.53333	1562
21.54167	1549
21.55000	1537
21.55833	1529
21.56667	1520
21.57500	1513
21.58333	1506
21.59167	1500
21.60000	1496
21.60833	1493
21.61667	1489
21.62500	1489
21.63333	1488
21.64167	1487
21.65000	1486
21.65833	1483
21.66667	1480
21.67500	1476
21.68333	1475
21.69167	1475
21.70000	1473
21.70833	1472
21.71667	1472
21.72500	1472
21.73333	1473
21.74167	1472
21.75000	1470
21.75833	1470
21.76667	1469
21.77500	1464
21.78333	1460
21.79167	1457
21.80000	1456
21.80833	1454
21.81667	1453
21.82500	1453
21.83333	1453
21.84167	1452
21.85000	1452
21.85833	1455
21.86667	1460
21.87500	1464
21.88333	1467
21.89167	1469
21.90000	1473
21.90833	1477
21.91667	1482
21.92500	1486
21.93333	1491
21.94167	1497
21.95000	1503
21.95833	1511
21.96667	1516
21.97500	1522
21.98333	1529
21.99167	1538
22.00000	1549
22.00833	1560
22.01667	1571
22.02500	1581
22.03333	1591
22.04167	1602
22.05000	1613
22.05833	1626
22.06667	1639
22.07500	1650
22.08333	1662
22.09167	1675
22.10000	1688
22.10833	1704
22.11667	1721
22.12500	1736
22.13333	1750
22.14167	1767
22.15000	1784
22.15833	1803
22.16667	1822
22.17500	1838
22.18333	1857
22.19167	1876
22.20000	1895
22.20833	1915
22.21667	1935
22.22500	1954
22.23333	1973
22.24167	1990
22.25000	2009
22.25833	2029
22.26667	2048
22.27500	2068
22.28333	2088
22.29167	2109
22.30000	2132
22.30833	2152
22.31667	2172
22.32500	2194
22.33333	2215
22.34167	2234
22.35000	2255
22.35833	2277
22.36667	2299
22.37500	2321
22.38333	2341
22.39167	2365
22.40000	2389
22.40833	2415
22.41667	2438
22.42500	2462
22.43333	2486
22.44167	2509
22.45000	2535
22.45833	2560
22.46667	2588
22.47500	2615
22.48333	2643
22.49167	2673
22.50000	2700
22.50833	2728
22.51667	2757
22.52500	2785
22.53333	2814
22.54167	2840
22.55000	2863
22.55833	2886
22.56667	2908
22.57500	2926
22.58333	2941
22.59167	2956
22.60000	2967
22.60833	2977
22.61667	2984
22.62500	2989
22.63333	2988
22.64167	2987
22.65000	2983
22.65833	2974
22.66667	2961
22.67500	2945
22.68333	2927
22.69167	2905
22.70000	2877
22.70833	2847
22.71667	2816
22.72500	2781
22.73333	2744
22.74167	2706
22.75000	2665
22.75833	2623
22.76667	2583
22.77500	2540
22.78333	2498
22.79167	2456
22.80000	2414
22.80833	2371
22.81667	2331
22.82500	2292
22.83333	2251
22.84167	2212
22.85000	2179
22.85833	2150
22.86667	2123
22.87500	2099
22.88333	2079
22.89167	2063
22.90000	2052
22.90833	2042
22.91667	2032
22.92500	2025
22.93333	2021
22.94167	2019
22.95000	2017
22.95833	2014
22.96667	2011
22.97500	2014
22.98333	2019
22.99167	2021
23.00000	2022
23.00833	2021
23.01667	2020
23.02500	2016
23.03333	2010
23.04167	2005
23.05000	1998
23.05833	1989
23.06667	1978
23.07500	1965
23.08333	1950
23.09167	1933
23.10000	1914
23.10833	1892
23.11667	1871
23.12500	1855
23.13333	1839
23.14167	1823
23.15000	1808
23.15833	1793
23.16667	1781
23.17500	1773
23.18333	1769
23.19167	1765
23.20000	1763
23.20833	1766
23.21667	1775
23.22500	1788
23.23333	1807
23.24167	1827
23.25000	1852
23.25833	1884
23.26667	1922
23.27500	1964
23.28333	2009
23.29167	2058
23.30000	2110
23.30833	2166
23.31667	2225
23.32500	2287
23.33333	2350
23.34167	2410
23.35000	2469
23.35833	2527
23.36667	2581
23.37500	2631
23.38333	2678
23.39167	2719
23.40000	2750
23.40833	2774
23.41667	2790
23.42500	2796
23.43333	2794
23.44167	2781
23.45000	2757
23.45833	2725
23.46667	2686
23.47500	2640
23.48333	2586
23.49167	2523
23.50000	2454
23.50833	2381
23.51667	2302
23.52500	2221
23.53333	2136
23.54167	2048
23.55000	1958
23.55833	1866
23.56667	1779
23.57500	1696
23.58333	1613
23.59167	1531
23.60000	1452
23.60833	1377
23.61667	1308
23.62500	1241
23.63333	1177
23.64167	1120
23.65000	1066
23.65833	1019
23.66667	978
23.67500	938
23.68333	902
23.69167	869
23.70000	838
23.70833	811
23.71667	789
23.72500	768
23.73333	748
23.74167	730
23.75000	713
23.75833	697
23.76667	684
23.77500	675
23.78333	664
23.79167	656
23.80000	650
23.80833	643
23.81667	637
23.82500	631
23.83333	629
23.84167	627
23.85000	624
23.85833	621
23.86667	618
23.87500	616
23.88333	615
23.89167	615
23.90000	614
23.90833	612
23.91667	612
23.92500	612
23.93333	610
23.94167	611
23.95000	611
23.95833	609
23.96667	608
23.97500	607
23.98333	607
23.99167	608
24.00000	607
24.00833	606
24.01667	607
24.02500	609
24.03333	610
24.04167	611
24.05000	611
24.05833	610
24.06667	610
24.07500	610
24.08333	611
24.09167	608
24.10000	605
24.10833	607
24.11667	611
24.12500	614
24.13333	616
24.14167	618
24.15000	620
24.15833	622
24.16667	625
24.17500	628
24.18333	630
24.19167	633
24.20000	636
24.20833	640
24.21667	646
24.22500	654
24.23333	659
24.24167	664
24.25000	666
24.25833	667
24.26667	671
24.27500	674
24.28333	679
24.29167	685
24.30000	691
24.30833	696
24.31667	698
24.32500	699
24.33333	700
24.34167	700
24.35000	700
24.35833	698
24.36667	698
24.37500	699
24.38333	696
24.39167	693
24.40000	689
24.40833	686
24.41667	683
24.42500	679
24.43333	675
24.44167	672
24.45000	667
24.45833	664
24.46667	658
24.47500	653
24.48333	647
24.49167	641
24.50000	635
24.50833	631
24.51667	624
24.52500	618
24.53333	612
24.54167	606
24.55000	599
24.55833	594
24.56667	590
24.57500	583
24.58333	576
24.59167	571
24.60000	567
24.60833	563
24.61667	558
24.62500	552
24.63333	546
24.64167	542
24.65000	538
24.65833	531
24.66667	525
24.67500	520
24.68333	513
24.69167	507
24.70000	505
24.70833	503
24.71667	501
24.72500	497
24.73333	491
24.74167	484
24.75000	480
24.75833	474
24.76667	468
24.77500	463
24.78333	456
24.79167	450
24.80000	445
24.80833	442
24.81667	440
24.82500	436
24.83333	431
24.84167	424
24.85000	418
24.85833	412
24.86667	407
24.87500	402
24.88333	399
24.89167	395
24.90000	391
24.90833	385
24.91667	380
24.92500	373
24.93333	369
24.94167	366
24.95000	363
24.95833	358
24.96667	355
24.97500	352
24.98333	349
24.99167	348
25.00000	349
25.00833	348
25.01667	344
25.02500	343
25.03333	342
25.04167	341
25.05000	339
25.05833	337
25.06667	339
25.07500	341
25.08333	340
25.09167	338
25.10000	334
25.10833	332
25.11667	330
25.12500	326
25.13333	325
25.14167	325
25.15000	325
25.15833	326
25.16667	326
25.17500	324
25.18333	322
25.19167	321
25.20000	321
25.20833	320
25.21667	317
25.22500	315
25.23333	316
25.24167	315
25.25000	314
25.25833	313
25.26667	310
25.27500	308
25.28333	304
25.29167	299
25.30000	299
25.30833	307
25.31667	312
25.32500	315
25.33333	317
25.34167	319
25.35000	321
25.35833	322
25.36667	322
25.37500	321
25.38333	318
25.39167	317
25.40000	315
25.40833	313
25.41667	312
25.42500	313
25.43333	312
25.44167	313
25.45000	313
25.45833	312
25.46667	310
25.47500	307
25.48333	305
25.49167	303
25.50000	305
25.50833	304
25.51667	303
25.52500	303
25.53333	302
25.54167	302
25.55000	300
25.55833	297
25.56667	296
25.57500	296
25.58333	294
25.59167	293
25.60000	292
25.60833	290
25.61667	290
25.62500	291
25.63333	293
25.64167	292
25.65000	289
25.65833	287
25.66667	286
25.67500	284
25.68333	283
25.69167	279
25.70000	276
25.70833	277
25.71667	278
25.72500	277
25.73333	278
25.74167	281
25.75000	283
25.75833	283
25.76667	283
25.77500	283
25.78333	281
25.79167	280
25.80000	280
25.80833	281
25.81667	282
25.82500	283
25.83333	284
25.84167	282
25.85000	281
25.85833	279
25.86667	280
25.87500	280
25.88333	281
25.89167	279
25.90000	278
25.90833	276
25.91667	275
25.92500	275
25.93333	277
25.94167	278
25.95000	278
25.95833	275
25.96667	275
25.97500	275
25.98333	275
25.99167	276
26.00000	277
26.00833	277
26.01667	277
26.02500	276
26.03333	275
26.04167	275
26.05000	275
26.05833	276
26.06667	276
26.07500	275
26.08333	275
26.09167	275
26.10000	275
26.10833	273
26.11667	272
26.12500	271
26.13333	268
26.14167	268
26.15000	268
26.15833	267
26.16667	266
26.17500	266
26.18333	267
26.19167	268
26.20000	267
26.20833	267
26.21667	267
26.22500	267
26.23333	266
26.24167	263
26.25000	264
26.25833	267
26.26667	270
26.27500	270
26.28333	266
26.29167	267
26.30000	267
26.30833	266
26.31667	263
26.32500	262
26.33333	262
26.34167	263
26.35000	264
26.35833	264
26.36667	262
26.37500	261
26.38333	261
26.39167	259
26.40000	256
26.40833	255
26.41667	257
26.42500	257
26.43333	255
26.44167	252
26.45000	250
26.45833	251
26.46667	254
26.47500	257
26.48333	257
26.49167	258
26.50000	258
26.50833	259
26.51667	260
26.52500	259
26.53333	259
26.54167	260
26.55000	264
26.55833	265
26.56667	265
26.57500	265
26.58333	266
26.59167	267
26.60000	269
26.60833	268
26.61667	265
26.62500	262
26.63333	262
26.64167	263
26.65000	264
26.65833	265
26.66667	267
26.67500	267
26.68333	265
26.69167	264
26.70000	264
26.70833	264
26.71667	265
26.72500	265
26.73333	264
26.74167	265
26.75000	266
26.75833	266
26.76667	267
26.77500	265
26.78333	264
26.79167	263
26.80000	262
26.80833	260
26.81667	258
26.82500	256
26.83333	253
26.84167	251
26.85000	253
26.85833	256
26.86667	254
26.87500	253
26.88333	253
26.89167	254
26.90000	256
26.90833	254
26.91667	253
26.92500	251
26.93333	250
26.94167	250
26.95000	250
26.95833	251
26.96667	250
26.97500	249
26.98333	249
26.99167	247
27.00000	244
27.00833	245
27.01667	245
27.02500	245
27.03333	247
27.04167	247
27.05000	248
27.05833	249
27.06667	251
27.07500	251
27.08333	250
27.09167	250
27.10000	250
27.10833	249
27.11667	250
27.12500	249
27.13333	248
27.14167	248
27.15000	251
27.15833	250
27.16667	250
27.17500	253
27.18333	257
27.19167	260
27.20000	260
27.20833	260
27.21667	264
27.22500	264
27.23333	262
27.24167	262
27.25000	262
27.25833	261
27.26667	260
27.27500	261
27.28333	262
27.29167	262
27.30000	262
27.30833	260
27.31667	261
27.32500	262
27.33333	263
27.34167	265
27.35000	266
27.35833	265
27.36667	264
27.37500	263
27.38333	264
27.39167	264
27.40000	265
27.40833	266
27.41667	268
27.42500	269
27.43333	270
27.44167	269
27.45000	268
27.45833	267
27.46667	266
27.47500	266
27.48333	266
27.49167	269
27.50000	270
27.50833	271
27.51667	272
27.52500	273
27.53333	275
27.54167	274
27.55000	275
27.55833	279
27.56667	284
27.57500	286
27.58333	289
27.59167	294
27.60000	300
27.60833	306
27.61667	311
27.62500	318
27.63333	327
27.64167	338
27.65000	352
27.65833	368
27.66667	386
27.67500	404
27.68333	423
27.69167	446
27.70000	472
27.70833	500
27.71667	532
27.72500	569
27.73333	608
27.74167	651
27.75000	696
27.75833	745
27.76667	798
27.77500	854
27.78333	916
27.79167	986
27.80000	1060
27.80833	1139
27.81667	1224
27.82500	1314
27.83333	1408
27.84167	1510
27.85000	1619
27.85833	1735
27.86667	1855
27.87500	1984
27.88333	2121
27.89167	2261
27.90000	2405
27.90833	2553
27.91667	2704
27.92500	2862
27.93333	3023
27.94167	3187
27.95000	3357
27.95833	3533
27.96667	3707
27.97500	3878
27.98333	4052
27.99167	4228
28.00000	4404
28.00833	4579
28.01667	4749
28.02500	4914
28.03333	5073
28.04167	5225
28.05000	5375
28.05833	5518
28.06667	5650
28.07500	5777
28.08333	5894
28.09167	6000
28.10000	6092
28.10833	6174
28.11667	6246
28.12500	6307
28.13333	6353
28.14167	6385
28.15000	6404
28.15833	6409
28.16667	6401
28.17500	6383
28.18333	6351
28.19167	6305
28.20000	6247
28.20833	6179
28.21667	6096
28.22500	5999
28.23333	5895
28.24167	5783
28.25000	5662
28.25833	5533
28.26667	5395
28.27500	5247
28.28333	5093
28.29167	4935
28.30000	4773
28.30833	4607
28.31667	4438
28.32500	4268
28.33333	4099
28.34167	3929
28.35000	3759
28.35833	3590
28.36667	3422
28.37500	3255
28.38333	3093
28.39167	2935
28.40000	2781
28.40833	2630
28.41667	2485
28.42500	2343
28.43333	2206
28.44167	2075
28.45000	1949
28.45833	1830
28.46667	1718
28.47500	1614
28.48333	1516
28.49167	1422
28.50000	1331
28.50833	1245
28.51667	1166
28.52500	1093
28.53333	1026
28.54167	964
28.55000	906
28.55833	853
28.56667	803
28.57500	758
28.58333	715
28.59167	675
28.60000	637
28.60833	603
28.61667	573
28.62500	547
28.63333	524
28.64167	501
28.65000	480
28.65833	460
28.66667	443
28.67500	428
28.68333	414
28.69167	402
28.70000	391
28.70833	378
28.71667	371
28.72500	365
28.73333	360
28.74167	353
28.75000	349
28.75833	345
28.76667	342
28.77500	340
28.78333	338
28.79167	334
28.80000	331
28.80833	329
28.81667	328
28.82500	328
28.83333	328
28.84167	327
28.85000	326
28.85833	326
28.86667	325
28.87500	325
28.88333	325
28.89167	324
28.90000	324
28.90833	324
28.91667	323
28.92500	324
28.93333	323
28.94167	322
28.95000	322
28.95833	321
28.96667	319
28.97500	317
28.98333	315
28.99167	317
29.00000	320
29.00833	321
29.01667	321
29.02500	321
29.03333	323
29.04167	325
29.05000	324
29.05833	319
29.06667	317
29.07500	317
29.08333	318
29.09167	317
29.10000	314
29.10833	313
29.11667	312
29.12500	313
29.13333	315
29.14167	317
29.15000	318
29.15833	316
29.16667	314
29.17500	313
29.18333	310
29.19167	308
29.20000	308
29.20833	309
29.21667	307
29.22500	307
29.23333	306
29.24167	307
29.25000	306
29.25833	307
29.26667	308
29.27500	309
29.28333	311
29.29167	311
29.30000	308
29.30833	306
29.31667	305
29.32500	305
29.33333	306
29.34167	305
29.35000	305
29.35833	303
29.36667	304
29.37500	304
29.38333	306
29.39167	309
29.40000	310
29.40833	309
29.41667	308
29.42500	309
29.43333	308
29.44167	309
29.45000	309
29.45833	309
29.46667	309
29.47500	308
29.48333	307
29.49167	308
29.50000	309
29.50833	311
29.51667	310
29.52500	309
29.53333	307
29.54167	306
29.55000	305
29.55833	304
29.56667	303
29.57500	303
29.58333	304
29.59167	306
29.60000	308
29.60833	309
29.61667	310
29.62500	310
29.63333	309
29.64167	308
29.65000	306
29.65833	304
29.66667	303
29.67500	303
29.68333	305
29.69167	306
29.70000	306
29.70833	306
29.71667	307
29.72500	310
29.73333	308
29.74167	306
29.75000	305
29.75833	303
29.76667	302
29.77500	300
29.78333	299
29.79167	297
29.80000	297
29.80833	299
29.81667	302
29.82500	304
29.83333	304
29.84167	305
29.85000	306
29.85833	306
29.86667	307
29.87500	306
29.88333	304
29.89167	302
29.90000	299
29.90833	296
29.91667	296
29.92500	296
29.93333	296
29.94167	298
29.95000	301
29.95833	304
29.96667	305
29.97500	304
29.98333	303
29.99167	303
30.00000	305

[LC Chromatogram(Detector B-Ch1)]
Interval(msec)	500
# of Points	3601
Start Time(min)	0.000
End Time(min)	30.000
Intensity Units	mV
Intensity Multiplier	0.001
R.Time (min)	Intensity
0.00000	64
0.00833	64
0.01667	18
0.02500	-1
0.03333	-2
0.04167	-3
0.05000	-3
0.05833	-3
0.06667	-3
0.07500	-3
0.08333	-3
0.09167	-3
0.10000	-3
0.10833	-2
0.11667	-3
0.12500	-3
0.13333	-3
0.14167	-4
0.15000	-5
0.15833	-5
0.16667	-6
0.17500	-6
0.18333	-7
0.19167	-7
0.20000	-7
0.20833	-8
0.21667	-8
0.22500	-9
0.23333	-10
0.24167	-10
0.25000	-10
0.25833	-11
0.26667	-11
0.27500	-11
0.28333	-12
0.29167	-12
0.30000	-12
0.30833	-13
0.31667	-13
0.32500	-14
0.33333	-14
0.34167	-15
0.35000	-16
0.35833	-16
0.36667	-17
0.37500	-18
0.38333	-18
0.39167	-18
0.40000	-18
0.40833	-18
0.41667	-19
0.42500	-19
0.43333	-20
0.44167	-21
0.45000	-21
0.45833	-22
0.46667	-23
0.47500	-23
0.48333	-24
0.49167	-24
0.50000	-24
0.50833	-25
0.51667	-25
0.52500	-26
0.53333	-27
0.54167	-28
0.55000	-28
0.55833	-29
0.56667	-30
0.57500	-30
0.58333	-31
0.59167	-31
0.60000	-32
0.60833	-32
0.61667	-32
0.62500	-33
0.63333	-33
0.64167	-34
0.65000	-34
0.65833	-34
0.66667	-35
0.67500	-35
0.68333	-35
0.69167	-36
0.70000	-37
0.70833	-37
0.71667	-38
0.72500	-38
0.73333	-38
0.74167	-39
0.75000	-40
0.75833	-40
0.76667	-41
0.77500	-42
0.78333	-42
0.79167	-43
0.80000	-43
0.80833	-44
0.81667	-44
0.82500	-45
0.83333	-45
0.84167	-46
0.85000	-47
0.85833	-47
0.86667	-48
0.87500	-49
0.88333	-50
0.89167	-50
0.90000	-51
0.90833	-51
0.91667	-52
0.92500	-52
0.93333	-52
0.94167	-52
0.95000	-53
0.95833	-53
0.96667	-54
0.97500	-54
0.98333	-55
0.99167	-55
1.00000	-56
1.00833	-57
1.01667	-57
1.02500	-58
1.03333	-58
1.04167	-59
1.05000	-59
1.05833	-60
1.06667	-60
1.07500	-61
1.08333	-61
1.09167	-62
1.10000	-62
1.10833	-63
1.11667	-63
1.12500	-63
1.13333	-64
1.14167	-64
1.15000	-65
1.15833	-65
1.16667	-66
1.17500	-66
1.18333	-67
1.19167	-67
1.20000	-68
1.20833	-69
1.21667	-69
1.22500	-70
1.23333	-70
1.24167	-71
1.25000	-71
1.25833	-71
1.26667	-72
1.27500	-72
1.28333	-73
1.29167	-73
1.30000	-74
1.30833	-74
1.31667	-74
1.32500	-75
1.33333	-75
1.34167	-75
1.35000	-76
1.35833	-76
1.36667	-76
1.37500	-77
1.38333	-77
1.39167	-77
1.40000	-78
1.40833	-78
1.41667	-78
1.42500	-79
1.43333	-79
1.44167	-80
1.45000	-81
1.45833	-81
1.46667	-82
1.47500	-83
1.48333	-83
1.49167	-83
1.50000	-84
1.50833	-85
1.51667	-85
1.52500	-86
1.53333	-86
1.54167	-87
1.55000	-88
1.55833	-88
1.56667	-88
1.57500	-88
1.58333	-88
1.59167	-89
1.60000	-89
1.60833	-89
1.61667	-89
1.62500	-90
1.63333	-90
1.64167	-91
1.65000	-91
1.65833	-92
1.66667	-92
1.67500	-93
1.68333	-93
1.69167	-93
1.70000	-93
1.70833	-93
1.71667	-93
1.72500	-94
1.73333	-94
1.74167	-95
1.75000	-95
1.75833	-96
1.76667	-97
1.77500	-98
1.78333	-98
1.79167	-99
1.80000	-100
1.80833	-100
1.81667	-101
1.82500	-102
1.83333	-103
1.84167	-104
1.85000	-104
1.85833	-105
1.86667	-106
1.87500	-106
1.88333	-107
1.89167	-107
1.90000	-106
1.90833	-106
1.91667	-106
1.92500	-106
1.93333	-106
1.94167	-106
1.95000	-106
1.95833	-106
1.96667	-106
1.97500	-106
1.98333	-107
1.99167	-108
2.00000	-108
2.00833	-109
2.01667	-109
2.02500	-110
2.03333	-110
2.04167	-110
2.05000	-110
2.05833	-110
2.06667	-110
2.07500	-110
2.08333	-110
2.09167	-110
2.10000	-110
2.10833	-110
2.11667	-111
2.12500	-111
2.13333	-112
2.14167	-112
2.15000	-112
2.15833	-113
2.16667	-113
2.17500	-113
2.18333	-113
2.19167	-113
2.20000	-114
2.20833	-114
2.21667	-115
2.22500	-115
2.23333	-116
2.24167	-116
2.25000	-116
2.25833	-116
2.26667	-117
2.27500	-117
2.28333	-118
2.29167	-118
2.30000	-118
2.30833	-118
2.31667	-118
2.32500	-118
2.33333	-118
2.34167	-119
2.35000	-119
2.35833	-120
2.36667	-120
2.37500	-120
2.38333	-121
2.39167	-121
2.40000	-121
2.40833	-122
2.41667	-122
2.42500	-122
2.43333	-122
2.44167	-123
2.45000	-123
2.45833	-123
2.46667	-124
2.47500	-124
2.48333	-124
2.49167	-124
2.50000	-124
2.50833	-124
2.51667	-125
2.52500	-125
2.53333	-125
2.54167	-125
2.55000	-126
2.55833	-126
2.56667	-127
2.57500	-127
2.58333	-128
2.59167	-128
2.60000	-128
2.60833	-128
2.61667	-128
2.62500	-128
2.63333	-129
2.64167	-129
2.65000	-130
2.65833	-130
2.66667	-131
2.67500	-131
2.68333	-131
2.69167	-132
2.70000	-132
2.70833	-133
2.71667	-134
2.72500	-134
2.73333	-135
2.74167	-136
2.75000	-136
2.75833	-137
2.76667	-137
2.77500	-138
2.78333	-139
2.79167	-140
2.80000	-140
2.80833	-140
2.81667	-141
2.82500	-141
2.83333	-141
2.84167	-142
2.85000	-142
2.85833	-143
2.86667	-143
2.87500	-144
2.88333	-144
2.89167	-144
2.90000	-144
2.90833	-145
2.91667	-146
2.92500	-146
2.93333	-147
2.94167	-147
2.95000	-148
2.95833	-148
2.96667	-148
2.97500	-149
2.98333	-149
2.99167	-149
3.00000	-150
3.00833	-150
3.01667	-151
3.02500	-151
3.03333	-152
3.04167	-152
3.05000	-153
3.05833	-153
3.06667	-154
3.07500	-154
3.08333	-155
3.09167	-155
3.10000	-155
3.10833	-156
3.11667	-156
3.12500	-157
3.13333	-158
3.14167	-158
3.15000	-159
3.15833	-159
3.16667	-160
3.17500	-160
3.18333	-161
3.19167	-162
3.20000	-163
3.20833	-164
3.21667	-164
3.22500	-165
3.23333	-165
3.24167	-165
3.25000	-166
3.25833	-166
3.26667	-167
3.27500	-167
3.28333	-168
3.29167	-169
3.30000	-170
3.30833	-171
3.31667	-171
3.32500	-172
3.33333	-172
3.34167	-173
3.35000	-174
3.35833	-174
3.36667	-175
3.37500	-176
3.38333	-177
3.39167	-178
3.40000	-179
3.40833	-179
3.41667	-180
3.42500	-180
3.43333	-181
3.44167	-182
3.45000	-182
3.45833	-183
3.46667	-184
3.47500	-185
3.48333	-186
3.49167	-186
3.50000	-187
3.50833	-188
3.51667	-188
3.52500	-188
3.53333	-189
3.54167	-190
3.55000	-191
3.55833	-192
3.56667	-193
3.57500	-193
3.58333	-194
3.59167	-195
3.60000	-195
3.60833	-195
3.61667	-196
3.62500	-196
3.63333	-197
3.64167	-197
3.65000	-198
3.65833	-199
3.66667	-199
3.67500	-200
3.68333	-200
3.69167	-201
3.70000	-201
3.70833	-202
3.71667	-202
3.72500	-202
3.73333	-203
3.74167	-203
3.75000	-204
3.75833	-204
3.76667	-205
3.77500	-206
3.78333	-206
3.79167	-207
3.80000	-207
3.80833	-208
3.81667	-208
3.82500	-209
3.83333	-209
3.84167	-209
3.85000	-210
3.85833	-210
3.86667	-211
3.87500	-211
3.88333	-211
3.89167	-211
3.90000	-212
3.90833	-212
3.91667	-212
3.92500	-212
3.93333	-213
3.94167	-213
3.95000	-214
3.95833	-214
3.96667	-214
3.97500	-214
3.98333	-214
3.99167	-214
4.00000	-214
4.00833	-214
4.01667	-214
4.02500	-215
4.03333	-215
4.04167	-215
4.05000	-215
4.05833	-215
4.06667	-215
4.07500	-216
4.08333	-216
4.09167	-217
4.10000	-218
4.10833	-219
4.11667	-219
4.12500	-220
4.13333	-220
4.14167	-220
4.15000	-220
4.15833	-219
4.16667	-219
4.17500	-219
4.18333	-219
4.19167	-218
4.20000	-219
4.20833	-219
4.21667	-220
4.22500	-220
4.23333	-221
4.24167	-222
4.25000	-222
4.25833	-222
4.26667	-222
4.27500	-222
4.28333	-222
4.29167	-221
4.30000	-221
4.30833	-220
4.31667	-220
4.32500	-219
4.33333	-219
4.34167	-219
4.35000	-220
4.35833	-220
4.36667	-220
4.37500	-221
4.38333	-221
4.39167	-221
4.40000	-222
4.40833	-222
4.41667	-222
4.42500	-222
4.43333	-222
4.44167	-222
4.45000	-222
4.45833	-221
4.46667	-221
4.47500	-221
4.48333	-221
4.49167	-222
4.50000	-222
4.50833	-222
4.51667	-222
4.52500	-222
4.53333	-223
4.54167	-223
4.55000	-223
4.55833	-223
4.56667	-223
4.57500	-223
4.58333	-222
4.59167	-222
4.60000	-222
4.60833	-222
4.61667	-222
4.62500	-222
4.63333	-223
4.64167	-223
4.65000	-223
4.65833	-222
4.66667	-222
4.67500	-222
4.68333	-222
4.69167	-222
4.70000	-222
4.70833	-222
4.71667	-221
4.72500	-222
4.73333	-222
4.74167	-223
4.75000	-223
4.75833	-223
4.76667	-223
4.77500	-223
4.78333	-223
4.79167	-223
4.80000	-223
4.80833	-223
4.81667	-222
4.82500	-222
4.83333	-222
4.84167	-222
4.85000	-222
4.85833	-222
4.86667	-222
4.87500	-221
4.88333	-221
4.89167	-221
4.90000	-221
4.90833	-221
4.91667	-221
4.92500	-221
4.93333	-221
4.94167	-221
4.95000	-221
4.95833	-221
4.96667	-221
4.97500	-221
4.98333	-221
4.99167	-222
5.00000	-222
5.00833	-222
5.01667	-221
5.02500	-221
5.03333	-221
5.04167	-222
5.05000	-222
5.05833	-222
5.06667	-222
5.07500	-222
5.08333	-222
5.09167	-222
5.10000	-222
5.10833	-222
5.11667	-222
5.12500	-222
5.13333	-222
5.14167	-222
5.15000	-222
5.15833	-221
5.16667	-221
5.17500	-221
5.18333	-221
5.19167	-221
5.20000	-221
5.20833	-221
5.21667	-221
5.22500	-221
5.23333	-221
5.24167	-222
5.25000	-222
5.25833	-221
5.26667	-221
5.27500	-221
5.28333	-221
5.29167	-221
5.30000	-220
5.30833	-220
5.31667	-220
5.32500	-220
5.33333	-220
5.34167	-220
5.35000	-220
5.35833	-220
5.36667	-220
5.37500	-220
5.38333	-220
5.39167	-220
5.40000	-221
5.40833	-221
5.41667	-221
5.42500	-220
5.43333	-220
5.44167	-220
5.45000	-220
5.45833	-220
5.46667	-220
5.47500	-220
5.48333	-220
5.49167	-220
5.50000	-220
5.50833	-220
5.51667	-220
5.52500	-220
5.53333	-220
5.54167	-220
5.55000	-219
5.55833	-219
5.56667	-219
5.57500	-219
5.58333	-219
5.59167	-219
5.60000	-219
5.60833	-219
5.61667	-219
5.62500	-219
5.63333	-219
5.64167	-220
5.65000	-220
5.65833	-220
5.66667	-220
5.67500	-220
5.68333	-220
5.69167	-220
5.70000	-220
5.70833	-220
5.71667	-220
5.72500	-220
5.73333	-219
5.74167	-219
5.75000	-219
5.75833	-219
5.76667	-219
5.77500	-219
5.78333	-219
5.79167	-219
5.80000	-219
5.80833	-218
5.81667	-218
5.82500	-218
5.83333	-218
5.84167	-218
5.85000	-218
5.85833	-219
5.86667	-219
5.87500	-219
5.88333	-219
5.89167	-219
5.90000	-219
5.90833	-219
5.91667	-219
5.92500	-219
5.93333	-219
5.94167	-219
5.95000	-219
5.95833	-219
5.96667	-219
5.97500	-219
5.98333	-220
5.99167	-220
6.00000	-220
6.00833	-220
6.01667	-220
6.02500	-219
6.03333	-219
6.04167	-219
6.05000	-219
6.05833	-219
6.06667	-219
6.07500	-218
6.08333	-218
6.09167	-218
6.10000	-218
6.10833	-217
6.11667	-217
6.12500	-217
6.13333	-217
6.14167	-217
6.15000	-217
6.15833	-217
6.16667	-217
6.17500	-216
6.18333	-216
6.19167	-216
6.20000	-216
6.20833	-216
6.21667	-216
6.22500	-215
6.23333	-215
6.24167	-214
6.25000	-214
6.25833	-214
6.26667	-214
6.27500	-214
6.28333	-214
6.29167	-213
6.30000	-213
6.30833	-213
6.31667	-213
6.32500	-213
6.33333	-213
6.34167	-212
6.35000	-212
6.35833	-212
6.36667	-211
6.37500	-210
6.38333	-210
6.39167	-209
6.40000	-209
6.40833	-209
6.41667	-208
6.42500	-208
6.43333	-208
6.44167	-208
6.45000	-207
6.45833	-207
6.46667	-207
6.47500	-206
6.48333	-205
6.49167	-205
6.50000	-204
6.50833	-204
6.51667	-204
6.52500	-203
6.53333	-203
6.54167	-203
6.55000	-203
6.55833	-202
6.56667	-202
6.57500	-202
6.58333	-201
6.59167	-201
6.60000	-200
6.60833	-200
6.61667	-199
6.62500	-199
6.63333	-198
6.64167	-198
6.65000	-197
6.65833	-197
6.66667	-197
6.67500	-196
6.68333	-196
6.69167	-196
6.70000	-195
6.70833	-195
6.71667	-194
6.72500	-194
6.73333	-193
6.74167	-193
6.75000	-193
6.75833	-193
6.76667	-193
6.77500	-193
6.78333	-192
6.79167	-192
6.80000	-191
6.80833	-191
6.81667	-189
6.82500	-188
6.83333	-187
6.84167	-185
6.85000	-184
6.85833	-183
6.86667	-182
6.87500	-181
6.88333	-180
6.89167	-180
6.90000	-179
6.90833	-180
6.91667	-179
6.92500	-179
6.93333	-179
6.94167	-178
6.95000	-178
6.95833	-177
6.96667	-176
6.97500	-174
6.98333	-173
6.99167	-172
7.00000	-170
7.00833	-169
7.01667	-168
7.02500	-167
7.03333	-166
7.04167	-166
7.05000	-165
7.05833	-165
7.06667	-164
7.07500	-164
7.08333	-163
7.09167	-162
7.10000	-162
7.10833	-162
7.11667	-161
7.12500	-161
7.13333	-160
7.14167	-159
7.15000	-158
7.15833	-157
7.16667	-157
7.17500	-156
7.18333	-155
7.19167	-154
7.20000	-154
7.20833	-154
7.21667	-153
7.22500	-153
7.23333	-152
7.24167	-151
7.25000	-150
7.25833	-149
7.26667	-149
7.27500	-148
7.28333	-147
7.29167	-146
7.30000	-145
7.30833	-144
7.31667	-143
7.32500	-142
7.33333	-141
7.34167	-140
7.35000	-139
7.35833	-138
7.36667	-137
7.37500	-136
7.38333	-135
7.39167	-134
7.40000	-133
7.40833	-131
7.41667	-130
7.42500	-129
7.43333	-128
7.44167	-127
7.45000	-126
7.45833	-125
7.46667	-124
7.47500	-123
7.48333	-122
7.49167	-121
7.50000	-121
7.50833	-120
7.51667	-119
7.52500	-119
7.53333	-118
7.54167	-117
7.55000	-116
7.55833	-114
7.56667	-113
7.57500	-111
7.58333	-110
7.59167	-109
7.60000	-107
7.60833	-106
7.61667	-105
7.62500	-104
7.63333	-103
7.64167	-102
7.65000	-101
7.65833	-100
7.66667	-99
7.67500	-98
7.68333	-97
7.69167	-96
7.70000	-95
7.70833	-95
7.71667	-93
7.72500	-92
7.73333	-91
7.74167	-90
7.75000	-89
7.75833	-88
7.76667	-88
7.77500	-87
7.78333	-86
7.79167	-84
7.80000	-83
7.80833	-82
7.81667	-82
7.82500	-81
7.83333	-80
7.84167	-79
7.85000	-77
7.85833	-77
7.86667	-76
7.87500	-75
7.88333	-74
7.89167	-73
7.90000	-72
7.90833	-71
7.91667	-70
7.92500	-69
7.93333	-69
7.94167	-68
7.95000	-67
7.95833	-65
7.96667	-64
7.97500	-63
7.98333	-62
7.99167	-61
8.00000	-61
8.00833	-60
8.01667	-59
8.02500	-59
8.03333	-58
8.04167	-57
8.05000	-56
8.05833	-55
8.06667	-54
8.07500	-53
8.08333	-52
8.09167	-51
8.10000	-50
8.10833	-50
8.11667	-49
8.12500	-48
8.13333	-47
8.14167	-46
8.15000	-45
8.15833	-44
8.16667	-43
8.17500	-43
8.18333	-42
8.19167	-41
8.20000	-40
8.20833	-39
8.21667	-38
8.22500	-37
8.23333	-36
8.24167	-35
8.25000	-35
8.25833	-34
8.26667	-33
8.27500	-32
8.28333	-31
8.29167	-30
8.30000	-29
8.30833	-28
8.31667	-27
8.32500	-27
8.33333	-26
8.34167	-25
8.35000	-25
8.35833	-24
8.36667	-24
8.37500	-23
8.38333	-23
8.39167	-22
8.40000	-21
8.40833	-21
8.41667	-20
8.42500	-20
8.43333	-19
8.44167	-19
8.45000	-18
8.45833	-18
8.46667	-17
8.47500	-17
8.48333	-16
8.49167	-15
8.50000	-15
8.50833	-15
8.51667	-14
8.52500	-14
8.53333	-14
8.54167	-13
8.55000	-13
8.55833	-12
8.56667	-12
8.57500	-12
8.58333	-11
8.59167	-11
8.60000	-10
8.60833	-10
8.61667	-9
8.62500	-9
8.63333	-8
8.64167	-7
8.65000	-7
8.65833	-6
8.66667	-6
8.67500	-5
8.68333	-4
8.69167	-4
8.70000	-4
8.70833	-3
8.71667	-3
8.72500	-3
8.73333	-2
8.74167	-2
8.75000	-1
8.75833	-1
8.76667	-0
8.77500	-0
8.78333	0
8.79167	0
8.80000	1
8.80833	1
8.81667	1
8.82500	1
8.83333	2
8.84167	2
8.85000	3
8.85833	3
8.86667	3
8.87500	4
8.88333	4
8.89167	5
8.90000	6
8.90833	6
8.91667	6
8.92500	7
8.93333	7
8.94167	7
8.95000	8
8.95833	7
8.96667	7
8.97500	7
8.98333	7
8.99167	7
9.00000	7
9.00833	7
9.01667	8
9.02500	9
9.03333	10
9.04167	11
9.05000	11
9.05833	11
9.06667	12
9.07500	13
9.08333	13
9.09167	13
9.10000	13
9.10833	13
9.11667	13
9.12500	13
9.13333	13
9.14167	13
9.15000	12
9.15833	12
9.16667	13
9.17500	13
9.18333	14
9.19167	14
9.20000	14
9.20833	15
9.21667	15
9.22500	15
9.23333	15
9.24167	15
9.25000	15
9.25833	15
9.26667	15
9.27500	15
9.28333	15
9.29167	15
9.30000	15
9.30833	15
9.31667	15
9.32500	15
9.33333	15
9.34167	15
9.35000	15
9.35833	15
9.36667	14
9.37500	14
9.38333	14
9.39167	15
9.40000	15
9.40833	15
9.41667	16
9.42500	15
9.43333	15
9.44167	15
9.45000	15
9.45833	14
9.46667	14
9.47500	14
9.48333	14
9.49167	14
9.50000	14
9.50833	14
9.51667	14
9.52500	14
9.53333	14
9.54167	14
9.55000	14
9.55833	14
9.56667	14
9.57500	14
9.58333	14
9.59167	14
9.60000	15
9.60833	15
9.61667	15
9.62500	15
9.63333	15
9.64167	15
9.65000	15
9.65833	15
9.66667	15
9.67500	15
9.68333	14
9.69167	15
9.70000	15
9.70833	15
9.71667	15
9.72500	15
9.73333	15
9.74167	15
9.75000	15
9.75833	15
9.76667	16
9.77500	16
9.78333	16
9.79167	17
9.80000	17
9.80833	17
9.81667	16
9.82500	16
9.83333	16
9.84167	16
9.85000	16
9.85833	16
9.86667	16
9.87500	16
9.88333	16
9.89167	16
9.90000	16
9.90833	16
9.91667	16
9.92500	15
9.93333	15
9.94167	15
9.95000	15
9.95833	15
9.96667	15
9.97500	15
9.98333	15
9.99167	15
10.00000	15
10.00833	15
10.01667	14
10.02500	14
10.03333	14
10.04167	14
10.05000	13
10.05833	13
10.06667	13
10.07500	13
10.08333	14
10.09167	14
10.10000	15
10.10833	15
10.11667	15
10.12500	14
10.13333	13
10.14167	13
10.15000	12
10.15833	12
10.16667	11
10.17500	11
10.18333	12
10.19167	12
10.20000	13
10.20833	13
10.21667	14
10.22500	14
10.23333	14
10.24167	14
10.25000	14
10.25833	14
10.26667	14
10.27500	14
10.28333	14
10.29167	14
10.30000	13
10.30833	13
10.31667	14
10.32500	13
10.33333	13
10.34167	12
10.35000	12
10.35833	12
10.36667	12
10.37500	12
10.38333	12
10.39167	11
10.40000	11
10.40833	11
10.41667	11
10.42500	11
10.43333	10
10.44167	10
10.45000	10
10.45833	10
10.46667	10
10.47500	9
10.48333	9
10.49167	9
10.50000	9
10.50833	9
10.51667	9
10.52500	9
10.53333	8
10.54167	8
10.55000	8
10.55833	8
10.56667	9
10.57500	9
10.58333	8
10.59167	8
10.60000	8
10.60833	8
10.61667	7
10.62500	7
10.63333	7
10.64167	7
10.65000	7
10.65833	7
10.66667	7
10.67500	7
10.68333	7
10.69167	7
10.70000	6
10.70833	6
10.71667	6
10.72500	6
10.73333	6
10.74167	6
10.75000	7
10.75833	6
10.76667	6
10.77500	6
10.78333	7
10.79167	7
10.80000	6
10.80833	6
10.81667	5
10.82500	5
10.83333	4
10.84167	4
10.85000	4
10.85833	5
10.86667	5
10.87500	5
10.88333	5
10.89167	4
10.90000	4
10.90833	4
10.91667	4
10.92500	5
10.93333	5
10.94167	5
10.95000	5
10.95833	5
10.96667	5
10.97500	5
10.98333	5
10.99167	5
11.00000	5
11.00833	5
11.01667	5
11.02500	5
11.03333	5
11.04167	5
11.05000	5
11.05833	4
11.06667	4
11.07500	4
11.08333	4
11.09167	5
11.10000	5
11.10833	5
11.11667	5
11.12500	5
11.13333	5
11.14167	5
11.15000	5
11.15833	5
11.16667	5
11.17500	5
11.18333	5
11.19167	6
11.20000	6
11.20833	6
11.21667	6
11.22500	6
11.23333	7
11.24167	7
11.25000	7
11.25833	7
11.26667	7
11.27500	7
11.28333	7
11.29167	8
11.30000	8
11.30833	8
11.31667	8
11.32500	9
11.33333	9
11.34167	9
11.35000	10
11.35833	10
11.36667	10
11.37500	11
11.38333	11
11.39167	11
11.40000	11
11.40833	11
11.41667	11
11.42500	11
11.43333	12
11.44167	12
11.45000	12
11.45833	12
11.46667	12
11.47500	13
11.48333	13
11.49167	13
11.50000	13
11.50833	14
11.51667	14
11.52500	14
11.53333	14
11.54167	14
11.55000	15
11.55833	15
11.56667	15
11.57500	15
11.58333	16
11.59167	15
11.60000	15
11.60833	16
11.61667	16
11.62500	16
11.63333	16
11.64167	17
11.65000	17
11.65833	17
11.66667	17
11.67500	17
11.68333	17
11.69167	17
11.70000	17
11.70833	18
11.71667	18
11.72500	18
11.73333	18
11.74167	19
11.75000	19
11.75833	19
11.76667	19
11.77500	19
11.78333	19
11.79167	20
11.80000	20
11.80833	20
11.81667	20
11.82500	20
11.83333	20
11.84167	20
11.85000	20
11.85833	20
11.86667	20
11.87500	20
11.88333	20
11.89167	19
11.90000	20
11.90833	20
11.91667	20
11.92500	20
11.93333	20
11.94167	20
11.95000	20
11.95833	19
11.96667	19
11.97500	19
11.98333	19
11.99167	20
12.00000	20
12.00833	20
12.01667	20
12.02500	21
12.03333	21
12.04167	22
12.05000	22
12.05833	22
12.06667	23
12.07500	23
12.08333	23
12.09167	23
12.10000	23
12.10833	24
12.11667	24
12.12500	24
12.13333	24
12.14167	25
12.15000	26
12.15833	26
12.16667	27
12.17500	27
12.18333	27
12.19167	27
12.20000	28
12.20833	28
12.21667	28
12.22500	29
12.23333	29
12.24167	29
12.25000	30
12.25833	30
12.26667	31
12.27500	31
12.28333	31
12.29167	31
12.30000	31
12.30833	31
12.31667	32
12.32500	32
12.33333	32
12.34167	33
12.35000	34
12.35833	34
12.36667	35
12.37500	35
12.38333	35
12.39167	35
12.40000	36
12.40833	36
12.41667	37
12.42500	37
12.43333	38
12.44167	38
12.45000	38
12.45833	38
12.46667	38
12.47500	39
12.48333	39
12.49167	40
12.50000	40
12.50833	41
12.51667	41
12.52500	41
12.53333	42
12.54167	42
12.55000	43
12.55833	43
12.56667	44
12.57500	44
12.58333	45
12.59167	46
12.60000	46
12.60833	47
12.61667	48
12.62500	48
12.63333	49
12.64167	49
12.65000	50
12.65833	50
12.66667	51
12.67500	51
12.68333	52
12.69167	52
12.70000	53
12.70833	53
12.71667	54
12.72500	54
12.73333	54
12.74167	54
12.75000	55
12.75833	55
12.76667	56
12.77500	56
12.78333	57
12.79167	57
12.80000	57
12.80833	58
12.81667	58
12.82500	59
12.83333	60
12.84167	60
12.85000	61
12.85833	61
12.86667	62
12.87500	62
12.88333	63
12.89167	63
12.90000	64
12.90833	64
12.91667	65
12.92500	65
12.93333	66
12.94167	66
12.95000	66
12.95833	67
12.96667	67
12.97500	67
12.98333	68
12.99167	68
13.00000	69
13.00833	69
13.01667	70
13.02500	70
13.03333	70
13.04167	71
13.05000	71
13.05833	71
13.06667	72
13.07500	72
13.08333	72
13.09167	73
13.10000	73
13.10833	74
13.11667	75
13.12500	75
13.13333	76
13.14167	76
13.15000	77
13.15833	78
13.16667	79
13.17500	79
13.18333	80
13.19167	80
13.20000	80
13.20833	80
13.21667	81
13.22500	81
13.23333	81
13.24167	82
13.25000	83
13.25833	83
13.26667	84
13.27500	84
13.28333	84
13.29167	84
13.30000	85
13.30833	86
13.31667	86
13.32500	87
13.33333	87
13.34167	87
13.35000	87
13.35833	88
13.36667	88
13.37500	89
13.38333	89
13.39167	90
13.40000	90
13.40833	91
13.41667	91
13.42500	92
13.43333	93
13.44167	93
13.45000	94
13.45833	94
13.46667	95
13.47500	95
13.48333	95
13.49167	95
13.50000	96
13.50833	96
13.51667	96
13.52500	97
13.53333	97
13.54167	97
13.55000	98
13.55833	98
13.56667	99
13.57500	99
13.58333	100
13.59167	100
13.60000	101
13.60833	101
13.61667	102
13.62500	103
13.63333	103
13.64167	103
13.65000	104
13.65833	104
13.66667	104
13.67500	104
13.68333	105
13.69167	105
13.70000	105
13.70833	106
13.71667	106
13.72500	107
13.73333	107
13.74167	108
13.75000	108
13.75833	108
13.76667	109
13.77500	109
13.78333	109
13.79167	110
13.80000	110
13.80833	111
13.81667	111
13.82500	111
13.83333	111
13.84167	112
13.85000	112
13.85833	113
13.86667	113
13.87500	114
13.88333	114
13.89167	115
13.90000	115
13.90833	116
13.91667	116
13.92500	117
13.93333	117
13.94167	117
13.95000	118
13.95833	118
13.96667	119
13.97500	119
13.98333	120
13.99167	120
14.00000	120
14.00833	121
14.01667	122
14.02500	123
14.03333	123
14.04167	123
14.05000	124
14.05833	124
14.06667	124
14.07500	125
14.08333	126
14.09167	126
14.10000	127
14.10833	127
14.11667	128
14.12500	128
14.13333	129
14.14167	129
14.15000	129
14.15833	129
14.16667	130
14.17500	130
14.18333	130
14.19167	131
14.20000	131
14.20833	132
14.21667	132
14.22500	133
14.23333	133
14.24167	134
14.25000	134
14.25833	134
14.26667	134
14.27500	135
14.28333	135
14.29167	135
14.30000	136
14.30833	136
14.31667	137
14.32500	137
14.33333	138
14.34167	138
14.35000	138
14.35833	138
14.36667	139
14.37500	139
14.38333	140
14.39167	140
14.40000	141
14.40833	141
14.41667	142
14.42500	142
14.43333	142
14.44167	143
14.45000	143
14.45833	143
14.46667	143
14.47500	144
14.48333	144
14.49167	145
14.50000	145
14.50833	146
14.51667	146
14.52500	147
14.53333	147
14.54167	148
14.55000	148
14.55833	148
14.56667	149
14.57500	149
14.58333	149
14.59167	150
14.60000	150
14.60833	150
14.61667	150
14.62500	151
14.63333	151
14.64167	152
14.65000	152
14.65833	153
14.66667	153
14.67500	154
14.68333	154
14.69167	154
14.70000	155
14.70833	155
14.71667	155
14.72500	155
14.73333	156
14.74167	156
14.75000	156
14.75833	156
14.76667	157
14.77500	157
14.78333	157
14.79167	158
14.80000	159
14.80833	159
14.81667	160
14.82500	160
14.83333	160
14.84167	161
14.85000	161
14.85833	161
14.86667	162
14.87500	162
14.88333	162
14.89167	162
14.90000	162
14.90833	163
14.91667	163
14.92500	163
14.93333	164
14.94167	165
14.95000	165
14.95833	165
14.96667	166
14.97500	166
14.98333	167
14.99167	167
15.00000	167
15.00833	168
15.01667	168
15.02500	169
15.03333	169
15.04167	169
15.05000	169
15.05833	169
15.06667	170
15.07500	170
15.08333	171
15.09167	171
15.10000	171
15.10833	171
15.11667	172
15.12500	173
15.13333	173
15.14167	174
15.15000	174
15.15833	175
15.16667	176
15.17500	177
15.18333	177
15.19167	178
15.20000	179
15.20833	180
15.21667	180
15.22500	181
15.23333	182
15.24167	183
15.25000	184
15.25833	185
15.26667	185
15.27500	187
15.28333	188
15.29167	189
15.30000	190
15.30833	192
15.31667	193
15.32500	194
15.33333	195
15.34167	196
15.35000	197
15.35833	199
15.36667	200
15.37500	201
15.38333	203
15.39167	204
15.40000	206
15.40833	207
15.41667	209
15.42500	210
15.43333	212
15.44167	213
15.45000	215
15.45833	217
15.46667	219
15.47500	222
15.48333	224
15.49167	226
15.50000	229
15.50833	231
15.51667	233
15.52500	235
15.53333	237
15.54167	240
15.55000	243
15.55833	245
15.56667	248
15.57500	251
15.58333	253
15.59167	257
15.60000	260
15.60833	263
15.61667	266
15.62500	269
15.63333	273
15.64167	276
15.65000	280
15.65833	284
15.66667	287
15.67500	291
15.68333	295
15.69167	299
15.70000	304
15.70833	308
15.71667	312
15.72500	317
15.73333	321
15.74167	326
15.75000	330
15.75833	335
15.76667	339
15.77500	344
15.78333	349
15.79167	354
15.80000	359
15.80833	364
15.81667	370
15.82500	375
15.83333	381
15.84167	387
15.85000	393
15.85833	399
15.86667	405
15.87500	411
15.88333	417
15.89167	423
15.90000	429
15.90833	436
15.91667	442
15.92500	449
15.93333	456
15.94167	463
15.95000	470
15.95833	477
15.96667	485
15.97500	493
15.98333	500
15.99167	508
16.00000	516
16.00833	524
16.01667	532
16.02500	540
16.03333	549
16.04167	557
16.05000	566
16.05833	575
16.06667	584
16.07500	593
16.08333	603
16.09167	613
16.10000	623
16.10833	633
16.11667	644
16.12500	654
16.13333	665
16.14167	676
16.15000	687
16.15833	699
16.16667	711
16.17500	723
16.18333	736
16.19167	748
16.20000	761
16.20833	775
16.21667	788
16.22500	803
16.23333	817
16.24167	832
16.25000	847
16.25833	862
16.26667	878
16.27500	894
16.28333	911
16.29167	928
16.30000	945
16.30833	963
16.31667	981
16.32500	1000
16.33333	1020
16.34167	1040
16.35000	1060
16.35833	1081
16.36667	1103
16.37500	1125
16.38333	1147
16.39167	1170
16.40000	1193
16.40833	1217
16.41667	1242
16.42500	1267
16.43333	1292
16.44167	1319
16.45000	1346
16.45833	1373
16.46667	1401
16.47500	1430
16.48333	1460
16.49167	1489
16.50000	1520
16.50833	1551
16.51667	1582
16.52500	1614
16.53333	1646
16.54167	1679
16.55000	1712
16.55833	1746
16.56667	1781
16.57500	1816
16.58333	1852
16.59167	1888
16.60000	1925
16.60833	1962
16.61667	1999
16.62500	2037
16.63333	2075
16.64167	2114
16.65000	2153
16.65833	2192
16.66667	2232
16.67500	2272
16.68333	2313
16.69167	2353
16.70000	2393
16.70833	2434
16.71667	2474
16.72500	2515
16.73333	2555
16.74167	2596
16.75000	2638
16.75833	2679
16.76667	2719
16.77500	2760
16.78333	2801
16.79167	2842
16.80000	2882
16.80833	2923
16.81667	2963
16.82500	3003
16.83333	3042
16.84167	3082
16.85000	3120
16.85833	3159
16.86667	3197
16.87500	3234
16.88333	3271
16.89167	3308
16.90000	3345
16.90833	3380
16.91667	3415
16.92500	3450
16.93333	3484
16.94167	3518
16.95000	3550
16.95833	3583
16.96667	3614
16.97500	3645
16.98333	3675
16.99167	3704
17.00000	3732
17.00833	3760
17.01667	3787
17.02500	3813
17.03333	3839
17.04167	3864
17.05000	3887
17.05833	3910
17.06667	3933
17.07500	3954
17.08333	3975
17.09167	3994
17.10000	4013
17.10833	4032
17.11667	4049
17.12500	4066
17.13333	4081
17.14167	4096
17.15000	4110
17.15833	4124
17.16667	4136
17.17500	4148
17.18333	4159
17.19167	4170
17.20000	4179
17.20833	4188
17.21667	4196
17.22500	4203
17.23333	4210
17.24167	4215
17.25000	4221
17.25833	4225
17.26667	4229
17.27500	4232
17.28333	4235
17.29167	4237
17.30000	4238
17.30833	4239
17.31667	4239
17.32500	4239
17.33333	4238
17.34167	4237
17.35000	4235
17.35833	4233
17.36667	4231
17.37500	4227
17.38333	4223
17.39167	4219
17.40000	4215
17.40833	4210
17.41667	4205
17.42500	4199
17.43333	4194
17.44167	4187
17.45000	4181
17.45833	4173
17.46667	4166
17.47500	4158
17.48333	4150
17.49167	4142
17.50000	4134
17.50833	4125
17.51667	4116
17.52500	4107
17.53333	4097
17.54167	4088
17.55000	4078
17.55833	4068
17.56667	4058
17.57500	4047
17.58333	4037
17.59167	4027
17.60000	4016
17.60833	4005
17.61667	3994
17.62500	3983
17.63333	3972
17.64167	3960
17.65000	3949
17.65833	3937
17.66667	3926
17.67500	3914
17.68333	3902
17.69167	3890
17.70000	3879
17.70833	3867
17.71667	3855
17.72500	3842
17.73333	3830
17.74167	3818
17.75000	3805
17.75833	3793
17.76667	3781
17.77500	3769
17.78333	3756
17.79167	3743
17.80000	3730
17.80833	3717
17.81667	3705
17.82500	3692
17.83333	3680
17.84167	3667
17.85000	3654
17.85833	3641
17.86667	3628
17.87500	3616
17.88333	3603
17.89167	3590
17.90000	3578
17.90833	3565
17.91667	3552
17.92500	3539
17.93333	3527
17.94167	3514
17.95000	3501
17.95833	3488
17.96667	3475
17.97500	3462
17.98333	3449
17.99167	3436
18.00000	3424
18.00833	3411
18.01667	3398
18.02500	3385
18.03333	3372
18.04167	3359
18.05000	3346
18.05833	3332
18.06667	3320
18.07500	3307
18.08333	3294
18.09167	3280
18.10000	3268
18.10833	3255
18.11667	3242
18.12500	3229
18.13333	3216
18.14167	3202
18.15000	3189
18.15833	3176
18.16667	3164
18.17500	3151
18.18333	3138
18.19167	3125
18.20000	3112
18.20833	3099
18.21667	3086
18.22500	3073
18.23333	3060
18.24167	3047
18.25000	3034
18.25833	3021
18.26667	3008
18.27500	2995
18.28333	2982
18.29167	2969
18.30000	2957
18.30833	2944
18.31667	2931
18.32500	2918
18.33333	2905
18.34167	2892
18.35000	2880
18.35833	2867
18.36667	2854
18.37500	2842
18.38333	2829
18.39167	2817
18.40000	2804
18.40833	2792
18.41667	2779
18.42500	2767
18.43333	2754
18.44167	2741
18.45000	2729
18.45833	2716
18.46667	2704
18.47500	2691
18.48333	2679
18.49167	2666
18.50000	2654
18.50833	2641
18.51667	2628
18.52500	2616
18.53333	2604
18.54167	2592
18.55000	2579
18.55833	2567
18.56667	2554
18.57500	2542
18.58333	2530
18.59167	2518
18.60000	2506
18.60833	2494
18.61667	2482
18.62500	2470
18.63333	2458
18.64167	2446
18.65000	2434
18.65833	2422
18.66667	2410
18.67500	2398
18.68333	2386
18.69167	2374
18.70000	2362
18.70833	2351
18.71667	2339
18.72500	2327
18.73333	2315
18.74167	2304
18.75000	2292
18.75833	2281
18.76667	2269
18.77500	2258
18.78333	2247
18.79167	2235
18.80000	2224
18.80833	2212
18.81667	2201
18.82500	2189
18.83333	2178
18.84167	2167
18.85000	2156
18.85833	2145
18.86667	2135
18.87500	2124
18.88333	2113
18.89167	2102
18.90000	2092
18.90833	2081
18.91667	2071
18.92500	2060
18.93333	2049
18.94167	2039
18.95000	2029
18.95833	2018
18.96667	2007
18.97500	1997
18.98333	1986
18.99167	1976
19.00000	1965
19.00833	1955
19.01667	1945
19.02500	1934
19.03333	1924
19.04167	1914
19.05000	1904
19.05833	1894
19.06667	1884
19.07500	1874
19.08333	1865
19.09167	1855
19.10000	1845
19.10833	1835
19.11667	1826
19.12500	1816
19.13333	1806
19.14167	1796
19.15000	1786
19.15833	1777
19.16667	1768
19.17500	1758
19.18333	1748
19.19167	1739
19.20000	1730
19.20833	1720
19.21667	1711
19.22500	1702
19.23333	1693
19.24167	1684
19.25000	1675
19.25833	1666
19.26667	1657
19.27500	1648
19.28333	1639
19.29167	1630
19.30000	1621
19.30833	1611
19.31667	1602
19.32500	1593
19.33333	1584
19.34167	1576
19.35000	1567
19.35833	1558
19.36667	1550
19.37500	1541
19.38333	1533
19.39167	1524
19.40000	1515
19.40833	1507
19.41667	1499
19.42500	1491
19.43333	1482
19.44167	1475
19.45000	1466
19.45833	1458
19.46667	1450
19.47500	1441
19.48333	1433
19.49167	1425
19.50000	1417
19.50833	1409
19.51667	1401
19.52500	1394
19.53333	1386
19.54167	1378
19.55000	1370
19.55833	1363
19.56667	1355
19.57500	1347
19.58333	1339
19.59167	1332
19.60000	1324
19.60833	1317
19.61667	1310
19.62500	1303
19.63333	1295
19.64167	1288
19.65000	1280
19.65833	1273
19.66667	1265
19.67500	1258
19.68333	1251
19.69167	1245
19.70000	1237
19.70833	1230
19.71667	1223
19.72500	1216
19.73333	1208
19.74167	1201
19.75000	1195
19.75833	1188
19.76667	1181
19.77500	1174
19.78333	1167
19.79167	1160
19.80000	1153
19.80833	1147
19.81667	1140
19.82500	1133
19.83333	1126
19.84167	1119
19.85000	1113
19.85833	1106
19.86667	1100
19.87500	1093
19.88333	1087
19.89167	1080
19.90000	1074
19.90833	1068
19.91667	1061
19.92500	1055
19.93333	1048
19.94167	1042
19.95000	1036
19.95833	1030
19.96667	1024
19.97500	1017
19.98333	1011
19.99167	1005
20.00000	999
20.00833	993
20.01667	988
20.02500	982
20.03333	977
20.04167	971
20.05000	965
20.05833	959
20.06667	954
20.07500	948
20.08333	942
20.09167	937
20.10000	931
20.10833	926
20.11667	920
20.12500	915
20.13333	909
20.14167	904
20.15000	898
20.15833	893
20.16667	887
20.17500	882
20.18333	877
20.19167	873
20.20000	868
20.20833	863
20.21667	858
20.22500	853
20.23333	848
20.24167	844
20.25000	838
20.25833	833
20.26667	828
20.27500	823
20.28333	818
20.29167	813
20.30000	809
20.30833	804
20.31667	800
20.32500	795
20.33333	791
20.34167	786
20.35000	782
20.35833	778
20.36667	773
20.37500	769
20.38333	764
20.39167	760
20.40000	756
20.40833	752
20.41667	748
20.42500	744
20.43333	740
20.44167	736
20.45000	732
20.45833	727
20.46667	723
20.47500	719
20.48333	715
20.49167	712
20.50000	708
20.50833	704
20.51667	701
20.52500	697
20.53333	694
20.54167	691
20.55000	687
20.55833	684
20.56667	680
20.57500	677
20.58333	674
20.59167	671
20.60000	668
20.60833	665
20.61667	662
20.62500	659
20.63333	656
20.64167	653
20.65000	650
20.65833	647
20.66667	644
20.67500	641
20.68333	639
20.69167	635
20.70000	632
20.70833	628
20.71667	625
20.72500	622
20.73333	619
20.74167	616
20.75000	613
20.75833	610
20.76667	607
20.77500	604
20.78333	600
20.79167	597
20.80000	594
20.80833	590
20.81667	587
20.82500	584
20.83333	581
20.84167	578
20.85000	574
20.85833	571
20.86667	568
20.87500	565
20.88333	562
20.89167	559
20.90000	556
20.90833	553
20.91667	550
20.92500	547
20.93333	544
20.94167	541
20.95000	539
20.95833	536
20.96667	533
20.97500	530
20.98333	528
20.99167	525
21.00000	523
21.00833	520
21.01667	518
21.02500	515
21.03333	513
21.04167	510
21.05000	508
21.05833	505
21.06667	503
21.07500	501
21.08333	498
21.09167	496
21.10000	494
21.10833	493
21.11667	491
21.12500	489
21.13333	487
21.14167	486
21.15000	484
21.15833	482
21.16667	480
21.17500	479
21.18333	477
21.19167	475
21.20000	474
21.20833	472
21.21667	470
21.22500	469
21.23333	467
21.24167	464
21.25000	462
21.25833	460
21.26667	459
21.27500	457
21.28333	455
21.29167	453
21.30000	451
21.30833	449
21.31667	447
21.32500	444
21.33333	442
21.34167	440
21.35000	437
21.35833	435
21.36667	432
21.37500	430
21.38333	428
21.39167	425
21.40000	423
21.40833	420
21.41667	417
21.42500	414
21.43333	411
21.44167	408
21.45000	405
21.45833	402
21.46667	399
21.47500	396
21.48333	392
21.49167	389
21.50000	384
21.50833	380
21.51667	376
21.52500	371
21.53333	367
21.54167	361
21.55000	355
21.55833	349
21.56667	342
21.57500	335
21.58333	327
21.59167	318
21.60000	309
21.60833	299
21.61667	288
21.62500	277
21.63333	264
21.64167	251
21.65000	238
21.65833	223
21.66667	207
21.67500	191
21.68333	174
21.69167	157
21.70000	140
21.70833	122
21.71667	105
21.72500	87
21.73333	70
21.74167	54
21.75000	40
21.75833	26
21.76667	14
21.77500	3
21.78333	-7
21.79167	-14
21.80000	-19
21.80833	-23
21.81667	-24
21.82500	-23
21.83333	-19
21.84167	-14
21.85000	-7
21.85833	1
21.86667	11
21.87500	23
21.88333	35
21.89167	48
21.90000	61
21.90833	74
21.91667	87
21.92500	100
21.93333	112
21.94167	124
21.95000	134
21.95833	144
21.96667	153
21.97500	160
21.98333	167
21.99167	172
22.00000	177
22.00833	181
22.01667	183
22.02500	185
22.03333	186
22.04167	187
22.05000	187
22.05833	187
22.06667	187
22.07500	186
22.08333	186
22.09167	186
22.10000	186
22.10833	187
22.11667	188
22.12500	190
22.13333	192
22.14167	195
22.15000	198
22.15833	202
22.16667	206
22.17500	211
22.18333	216
22.19167	221
22.20000	226
22.20833	232
22.21667	238
22.22500	244
22.23333	251
22.24167	257
22.25000	263
22.25833	270
22.26667	276
22.27500	282
22.28333	287
22.29167	293
22.30000	298
22.30833	303
22.31667	308
22.32500	313
22.33333	318
22.34167	323
22.35000	328
22.35833	332
22.36667	337
22.37500	342
22.38333	347
22.39167	352
22.40000	358
22.40833	364
22.41667	371
22.42500	379
22.43333	388
22.44167	398
22.45000	410
22.45833	423
22.46667	439
22.47500	456
22.48333	477
22.49167	501
22.50000	528
22.50833	559
22.51667	595
22.52500	635
22.53333	682
22.54167	735
22.55000	795
22.55833	863
22.56667	938
22.57500	1023
22.58333	1118
22.59167	1223
22.60000	1340
22.60833	1468
22.61667	1608
22.62500	1761
22.63333	1927
22.64167	2107
22.65000	2300
22.65833	2506
22.66667	2726
22.67500	2959
22.68333	3205
22.69167	3462
22.70000	3728
22.70833	4003
22.71667	4285
22.72500	4572
22.73333	4861
22.74167	5150
22.75000	5437
22.75833	5719
22.76667	5992
22.77500	6255
22.78333	6504
22.79167	6737
22.80000	6950
22.80833	7141
22.81667	7307
22.82500	7447
22.83333	7558
22.84167	7639
22.85000	7690
22.85833	7709
22.86667	7697
22.87500	7653
22.88333	7579
22.89167	7475
22.90000	7343
22.90833	7184
22.91667	7002
22.92500	6797
22.93333	6574
22.94167	6333
22.95000	6079
22.95833	5814
22.96667	5541
22.97500	5263
22.98333	4981
22.99167	4700
23.00000	4420
23.00833	4145
23.01667	3876
23.02500	3614
23.03333	3362
23.04167	3119
23.05000	2888
23.05833	2668
23.06667	2460
23.07500	2265
23.08333	2083
23.09167	1912
23.10000	1755
23.10833	1610
23.11667	1476
23.12500	1354
23.13333	1242
23.14167	1140
23.15000	1048
23.15833	965
23.16667	890
23.17500	822
23.18333	761
23.19167	707
23.20000	658
23.20833	615
23.21667	576
23.22500	542
23.23333	511
23.24167	485
23.25000	461
23.25833	440
23.26667	422
23.27500	407
23.28333	393
23.29167	380
23.30000	369
23.30833	360
23.31667	351
23.32500	344
23.33333	337
23.34167	332
23.35000	328
23.35833	324
23.36667	320
23.37500	318
23.38333	315
23.39167	313
23.40000	311
23.40833	309
23.41667	308
23.42500	307
23.43333	306
23.44167	306
23.45000	306
23.45833	306
23.46667	306
23.47500	306
23.48333	306
23.49167	306
23.50000	306
23.50833	306
23.51667	307
23.52500	307
23.53333	307
23.54167	307
23.55000	307
23.55833	307
23.56667	306
23.57500	306
23.58333	305
23.59167	304
23.60000	303
23.60833	302
23.61667	301
23.62500	299
23.63333	297
23.64167	296
23.65000	294
23.65833	291
23.66667	289
23.67500	287
23.68333	284
23.69167	281
23.70000	279
23.70833	276
23.71667	273
23.72500	271
23.73333	269
23.74167	266
23.75000	264
23.75833	262
23.76667	260
23.77500	259
23.78333	257
23.79167	255
23.80000	253
23.80833	252
23.81667	251
23.82500	249
23.83333	248
23.84167	247
23.85000	246
23.85833	246
23.86667	245
23.87500	245
23.88333	245
23.89167	245
23.90000	245
23.90833	246
23.91667	246
23.92500	246
23.93333	246
23.94167	246
23.95000	247
23.95833	247
23.96667	248
23.97500	248
23.98333	248
23.99167	248
24.00000	249
24.00833	249
24.01667	250
24.02500	251
24.03333	252
24.04167	252
24.05000	253
24.05833	253
24.06667	253
24.07500	254
24.08333	254
24.09167	254
24.10000	255
24.10833	255
24.11667	256
24.12500	256
24.13333	257
24.14167	257
24.15000	257
24.15833	257
24.16667	258
24.17500	258
24.18333	259
24.19167	260
24.20000	261
24.20833	261
24.21667	262
24.22500	263
24.23333	264
24.24167	265
24.25000	266
24.25833	267
24.26667	269
24.27500	270
24.28333	272
24.29167	275
24.30000	277
24.30833	280
24.31667	283
24.32500	285
24.33333	288
24.34167	291
24.35000	294
24.35833	297
24.36667	301
24.37500	304
24.38333	307
24.39167	310
24.40000	313
24.40833	317
24.41667	320
24.42500	323
24.43333	325
24.44167	327
24.45000	329
24.45833	331
24.46667	332
24.47500	334
24.48333	335
24.49167	335
24.50000	335
24.50833	335
24.51667	334
24.52500	333
24.53333	332
24.54167	331
24.55000	330
24.55833	328
24.56667	327
24.57500	325
24.58333	322
24.59167	320
24.60000	318
24.60833	315
24.61667	313
24.62500	312
24.63333	310
24.64167	309
24.65000	308
24.65833	308
24.66667	308
24.67500	308
24.68333	309
24.69167	311
24.70000	313
24.70833	315
24.71667	319
24.72500	323
24.73333	328
24.74167	333
24.75000	340
24.75833	348
24.76667	356
24.77500	365
24.78333	376
24.79167	387
24.80000	398
24.80833	411
24.81667	424
24.82500	438
24.83333	453
24.84167	468
24.85000	483
24.85833	498
24.86667	514
24.87500	529
24.88333	544
24.89167	560
24.90000	574
24.90833	588
24.91667	601
24.92500	613
24.93333	624
24.94167	633
24.95000	641
24.95833	648
24.96667	653
24.97500	657
24.98333	659
24.99167	659
25.00000	658
25.00833	655
25.01667	650
25.02500	644
25.03333	637
25.04167	628
25.05000	618
25.05833	607
25.06667	594
25.07500	581
25.08333	568
25.09167	553
25.10000	538
25.10833	522
25.11667	507
25.12500	491
25.13333	475
25.14167	459
25.15000	443
25.15833	428
25.16667	413
25.17500	399
25.18333	385
25.19167	371
25.20000	358
25.20833	345
25.21667	333
25.22500	321
25.23333	310
25.24167	299
25.25000	290
25.25833	280
25.26667	271
25.27500	263
25.28333	254
25.29167	246
25.30000	239
25.30833	232
25.31667	226
25.32500	220
25.33333	214
25.34167	208
25.35000	203
25.35833	198
25.36667	194
25.37500	190
25.38333	186
25.39167	183
25.40000	180
25.40833	177
25.41667	174
25.42500	172
25.43333	170
25.44167	169
25.45000	167
25.45833	166
25.46667	165
25.47500	165
25.48333	165
25.49167	164
25.50000	165
25.50833	166
25.51667	167
25.52500	169
25.53333	170
25.54167	172
25.55000	174
25.55833	175
25.56667	177
25.57500	179
25.58333	181
25.59167	182
25.60000	184
25.60833	186
25.61667	188
25.62500	191
25.63333	193
25.64167	195
25.65000	197
25.65833	199
25.66667	201
25.67500	203
25.68333	205
25.69167	207
25.70000	208
25.70833	210
25.71667	211
25.72500	213
25.73333	215
25.74167	216
25.75000	218
25.75833	219
25.76667	220
25.77500	221
25.78333	222
25.79167	223
25.80000	224
25.80833	225
25.81667	226
25.82500	227
25.83333	228
25.84167	228
25.85000	229
25.85833	230
25.86667	230
25.87500	230
25.88333	231
25.89167	231
25.90000	231
25.90833	232
25.91667	232
25.92500	233
25.93333	233
25.94167	233
25.95000	233
25.95833	233
25.96667	233
25.97500	234
25.98333	235
25.99167	236
26.00000	236
26.00833	237
26.01667	238
26.02500	239
26.03333	239
26.04167	240
26.05000	240
26.05833	241
26.06667	241
26.07500	242
26.08333	242
26.09167	242
26.10000	242
26.10833	242
26.11667	242
26.12500	242
26.13333	243
26.14167	243
26.15000	244
26.15833	244
26.16667	245
26.17500	245
26.18333	245
26.19167	246
26.20000	246
26.20833	246
26.21667	246
26.22500	246
26.23333	246
26.24167	246
26.25000	246
26.25833	247
26.26667	247
26.27500	247
26.28333	247
26.29167	247
26.30000	247
26.30833	247
26.31667	248
26.32500	247
26.33333	248
26.34167	248
26.35000	248
26.35833	248
26.36667	248
26.37500	249
26.38333	248
26.39167	248
26.40000	249
26.40833	249
26.41667	248
26.42500	248
26.43333	247
26.44167	247
26.45000	247
26.45833	247
26.46667	246
26.47500	246
26.48333	246
26.49167	246
26.50000	246
26.50833	246
26.51667	245
26.52500	245
26.53333	245
26.54167	245
26.55000	245
26.55833	244
26.56667	244
26.57500	244
26.58333	243
26.59167	243
26.60000	243
26.60833	242
26.61667	241
26.62500	241
26.63333	240
26.64167	240
26.65000	240
26.65833	239
26.66667	239
26.67500	239
26.68333	238
26.69167	238
26.70000	238
26.70833	237
26.71667	237
26.72500	236
26.73333	235
26.74167	234
26.75000	233
26.75833	232
26.76667	231
26.77500	230
26.78333	228
26.79167	227
26.80000	224
26.80833	222
26.81667	220
26.82500	217
26.83333	214
26.84167	211
26.85000	207
26.85833	203
26.86667	199
26.87500	194
26.88333	188
26.89167	181
26.90000	174
26.90833	166
26.91667	158
26.92500	149
26.93333	138
26.94167	127
26.95000	115
26.95833	102
26.96667	88
26.97500	73
26.98333	56
26.99167	39
27.00000	20
27.00833	-0
27.01667	-22
27.02500	-44
27.03333	-68
27.04167	-94
27.05000	-120
27.05833	-148
27.06667	-177
27.07500	-208
27.08333	-239
27.09167	-271
27.10000	-304
27.10833	-337
27.11667	-372
27.12500	-407
27.13333	-442
27.14167	-477
27.15000	-512
27.15833	-548
27.16667	-583
27.17500	-617
27.18333	-651
27.19167	-683
27.20000	-715
27.20833	-745
27.21667	-775
27.22500	-802
27.23333	-828
27.24167	-851
27.25000	-873
27.25833	-892
27.26667	-909
27.27500	-923
27.28333	-934
27.29167	-943
27.30000	-948
27.30833	-951
27.31667	-951
27.32500	-949
27.33333	-944
27.34167	-936
27.35000	-926
27.35833	-912
27.36667	-896
27.37500	-878
27.38333	-857
27.39167	-835
27.40000	-810
27.40833	-784
27.41667	-756
27.42500	-727
27.43333	-696
27.44167	-664
27.45000	-632
27.45833	-599
27.46667	-565
27.47500	-531
27.48333	-496
27.49167	-462
27.50000	-428
27.50833	-394
27.51667	-361
27.52500	-328
27.53333	-296
27.54167	-265
27.55000	-235
27.55833	-206
27.56667	-178
27.57500	-152
27.58333	-125
27.59167	-100
27.60000	-77
27.60833	-54
27.61667	-33
27.62500	-13
27.63333	6
27.64167	23
27.65000	40
27.65833	55
27.66667	69
27.67500	83
27.68333	95
27.69167	106
27.70000	117
27.70833	126
27.71667	135
27.72500	142
27.73333	149
27.74167	156
27.75000	162
27.75833	167
27.76667	172
27.77500	175
27.78333	179
27.79167	182
27.80000	184
27.80833	187
27.81667	188
27.82500	190
27.83333	191
27.84167	191
27.85000	191
27.85833	191
27.86667	191
27.87500	189
27.88333	188
27.89167	186
27.90000	184
27.90833	182
27.91667	180
27.92500	177
27.93333	174
27.94167	170
27.95000	166
27.95833	162
27.96667	157
27.97500	152
27.98333	147
27.99167	141
28.00000	135
28.00833	128
28.01667	121
28.02500	113
28.03333	105
28.04167	97
28.05000	88
28.05833	79
28.06667	70
28.07500	60
28.08333	49
28.09167	38
28.10000	27
28.10833	16
28.11667	4
28.12500	-7
28.13333	-19
28.14167	-30
28.15000	-42
28.15833	-54
28.16667	-66
28.17500	-77
28.18333	-89
28.19167	-101
28.20000	-112
28.20833	-123
28.21667	-134
28.22500	-143
28.23333	-153
28.24167	-162
28.25000	-170
28.25833	-178
28.26667	-185
28.27500	-191
28.28333	-197
28.29167	-202
28.30000	-206
28.30833	-209
28.31667	-211
28.32500	-212
28.33333	-212
28.34167	-212
28.35000	-210
28.35833	-208
28.36667	-205
28.37500	-201
28.38333	-196
28.39167	-190
28.40000	-183
28.40833	-176
28.41667	-168
28.42500	-160
28.43333	-152
28.44167	-143
28.45000	-133
28.45833	-123
28.46667	-112
28.47500	-101
28.48333	-90
28.49167	-79
28.50000	-67
28.50833	-55
28.51667	-44
28.52500	-32
28.53333	-21
28.54167	-9
28.55000	2
28.55833	14
28.56667	25
28.57500	36
28.58333	46
28.59167	57
28.60000	67
28.60833	76
28.61667	85
28.62500	94
28.63333	102
28.64167	111
28.65000	119
28.65833	126
28.66667	133
28.67500	140
28.68333	146
28.69167	152
28.70000	158
28.70833	163
28.71667	168
28.72500	173
28.73333	177
28.74167	181
28.75000	185
28.75833	188
28.76667	191
28.77500	195
28.78333	197
28.79167	199
28.80000	201
28.80833	203
28.81667	205
28.82500	207
28.83333	209
28.84167	210
28.85000	211
28.85833	212
28.86667	214
28.87500	216
28.88333	217
28.89167	218
28.90000	219
28.90833	220
28.91667	220
28.92500	221
28.93333	222
28.94167	222
28.95000	222
28.95833	222
28.96667	221
28.97500	221
28.98333	220
28.99167	220
29.00000	220
29.00833	221
29.01667	222
29.02500	223
29.03333	225
29.04167	225
29.05000	226
29.05833	226
29.06667	227
29.07500	227
29.08333	227
29.09167	227
29.10000	228
29.10833	228
29.11667	228
29.12500	228
29.13333	228
29.14167	228
29.15000	228
29.15833	228
29.16667	228
29.17500	227
29.18333	227
29.19167	227
29.20000	227
29.20833	227
29.21667	227
29.22500	227
29.23333	227
29.24167	228
29.25000	228
29.25833	228
29.26667	228
29.27500	228
29.28333	227
29.29167	227
29.30000	227
29.30833	227
29.31667	227
29.32500	227
29.33333	227
29.34167	228
29.35000	228
29.35833	228
29.36667	229
29.37500	229
29.38333	229
29.39167	229
29.40000	229
29.40833	229
29.41667	229
29.42500	229
29.43333	230
29.44167	231
29.45000	231
29.45833	231
29.46667	231
29.47500	231
29.48333	232
29.49167	232
29.50000	232
29.50833	232
29.51667	233
29.52500	233
29.53333	233
29.54167	233
29.55000	233
29.55833	233
29.56667	233
29.57500	234
29.58333	234
29.59167	234
29.60000	234
29.60833	235
29.61667	235
29.62500	235
29.63333	235
29.64167	235
29.65000	235
29.65833	235
29.66667	235
29.67500	235
29.68333	236
29.69167	236
29.70000	236
29.70833	236
29.71667	236
29.72500	236
29.73333	236
29.74167	236
29.75000	236
29.75833	236
29.76667	236
29.77500	237
29.78333	237
29.79167	237
29.80000	238
29.80833	238
29.81667	238
29.82500	239
29.83333	239
29.84167	239
29.85000	239
29.85833	239
29.86667	239
29.87500	239
29.88333	239
29.89167	239
29.90000	239
29.90833	239
29.91667	239
29.92500	239
29.93333	240
29.94167	240
29.95000	240
29.95833	240
29.96667	240
29.97500	240
29.98333	240
29.99167	241
30.00000	241

