TITLE	
DATA TYPE	
ORIGIN	JASCO
OWNER	
DATE	23/06/01
TIME	12:24:00
SPECTROMETER/DATA SYSTEM	JASCO Corp., V-750, Rev. 1.00
RESOLUTION	
DELTAX	-1
XUNITS	NANOMETERS
YUNITS	ABSORBANCE
FIRSTX	800
LASTX	200
NPOINTS	601
FIRSTY	0.857435
MAXY	1.24188
MINY	-1.19018
XYDATA
800	0.857435
799	0.860432
798	0.86338
797	0.866166
796	0.869373
795	0.872227
794	0.87509
793	0.878132
792	0.88125
791	0.884144
790	0.887373
789	0.890439
788	0.893673
787	0.896436
786	0.899595
785	0.902669
784	0.905803
783	0.908532
782	0.911569
781	0.914636
780	0.917894
779	0.921057
778	0.924054
777	0.927389
776	0.930681
775	0.934355
774	0.936964
773	0.94022
772	0.943248
771	0.946597
770	0.950152
769	0.953192
768	0.956681
767	0.959953
766	0.963188
765	0.966826
764	0.970158
763	0.973613
762	0.976805
761	0.980147
760	0.983815
759	0.986999
758	0.990614
757	0.993951
756	0.998111
755	1.00158
754	1.00457
753	1.00832
752	1.01208
751	1.01583
750	1.01939
749	1.02295
748	1.02698
747	1.03009
746	1.03378
745	1.03768
744	1.04138
743	1.04492
742	1.04829
741	1.05197
740	1.05656
739	1.06007
738	1.06349
737	1.06691
736	1.07058
735	1.07415
734	1.07746
733	1.08132
732	1.08484
731	1.0881
730	1.09152
729	1.09442
728	1.09833
727	1.10237
726	1.10534
725	1.10849
724	1.11147
723	1.11507
722	1.11917
721	1.12264
720	1.12521
719	1.12771
718	1.13129
717	1.13543
716	1.1385
715	1.14126
714	1.14381
713	1.1473
712	1.14975
711	1.15316
710	1.1555
709	1.159
708	1.16213
707	1.16565
706	1.16921
705	1.17189
704	1.17524
703	1.17837
702	1.18206
701	1.18485
700	1.18747
699	1.19
698	1.19185
697	1.19337
696	1.19365
695	1.19294
694	1.19137
693	1.18896
692	1.18638
691	1.1834
690	1.18077
689	1.17876
688	1.17741
687	1.17717
686	1.17722
685	1.17863
684	1.18156
683	1.18454
682	1.18741
681	1.18787
680	1.19116
679	1.19939
678	1.21007
677	1.21753
676	1.21965
675	1.21921
674	1.21959
673	1.2205
672	1.22126
671	1.22089
670	1.221
669	1.22149
668	1.22323
667	1.22496
666	1.22624
665	1.22699
664	1.22752
663	1.22738
662	1.22757
661	1.22768
660	1.22937
659	1.23106
658	1.23205
657	1.23171
656	1.23123
655	1.23126
654	1.2327
653	1.23405
652	1.23425
651	1.23427
650	1.23433
649	1.23468
648	1.23499
647	1.23547
646	1.23593
645	1.23649
644	1.23653
643	1.23657
642	1.2372
641	1.23767
640	1.23845
639	1.23757
638	1.23725
637	1.2367
636	1.23789
635	1.23842
634	1.23932
633	1.23983
632	1.23996
631	1.24002
630	1.24025
629	1.24032
628	1.24056
627	1.24003
626	1.23975
625	1.23871
624	1.239
623	1.23853
622	1.23824
621	1.23732
620	1.23817
619	1.23833
618	1.23822
617	1.23809
616	1.23822
615	1.23865
614	1.2392
613	1.23967
612	1.23943
611	1.23858
610	1.23763
609	1.23734
608	1.23821
607	1.24014
606	1.24143
605	1.24188
604	1.24089
603	1.24031
602	1.23946
601	1.23857
600	1.23871
599	1.23881
598	1.2394
597	1.239
596	1.23906
595	1.2388
594	1.23874
593	1.23836
592	1.23749
591	1.2374
590	1.23795
589	1.23776
588	1.23863
587	1.23782
586	1.23854
585	1.23855
584	1.23874
583	1.23865
582	1.23821
581	1.23763
580	1.23725
579	1.23768
578	1.23756
577	1.23757
576	1.23675
575	1.23664
574	1.23679
573	1.23688
572	1.23733
571	1.23753
570	1.23725
569	1.23633
568	1.2357
567	1.23606
566	1.23611
565	1.23622
564	1.23606
563	1.23543
562	1.23449
561	1.23511
560	1.23579
559	1.23616
558	1.23583
557	1.23576
556	1.23575
555	1.23553
554	1.23571
553	1.23558
552	1.23477
551	1.23393
550	1.23384
549	1.23449
548	1.2346
547	1.23444
546	1.23333
545	1.23323
544	1.23341
543	1.23413
542	1.2342
541	1.23341
540	1.23362
539	1.23376
538	1.23414
537	1.23357
536	1.23299
535	1.23292
534	1.23314
533	1.23306
532	1.23268
531	1.23296
530	1.23236
529	1.23208
528	1.2317
527	1.23111
526	1.23083
525	1.23047
524	1.23057
523	1.23139
522	1.23159
521	1.23207
520	1.23156
519	1.23124
518	1.23076
517	1.23047
516	1.23011
515	1.23013
514	1.23065
513	1.2306
512	1.23075
511	1.23024
510	1.22961
509	1.22928
508	1.22928
507	1.2292
506	1.22956
505	1.2294
504	1.23029
503	1.22983
502	1.23015
501	1.22917
500	1.22891
499	1.22776
498	1.22842
497	1.22809
496	1.22757
495	1.22656
494	1.2277
493	1.22819
492	1.2277
491	1.22696
490	1.22685
489	1.22765
488	1.22808
487	1.2275
486	1.22609
485	1.22577
484	1.22609
483	1.22659
482	1.22542
481	1.22485
480	1.22478
479	1.22456
478	1.22526
477	1.22523
476	1.22506
475	1.22468
474	1.22493
473	1.22486
472	1.22473
471	1.22319
470	1.22139
469	1.22079
468	1.21991
467	1.21946
466	1.21894
465	1.21829
464	1.21842
463	1.2175
462	1.21714
461	1.21657
460	1.21686
459	1.21661
458	1.21479
457	1.21251
456	1.21015
455	1.20887
454	1.20687
453	1.20549
452	1.20423
451	1.20401
450	1.21585
449	1.21636
448	1.21662
447	1.21612
446	1.21538
445	1.2154
444	1.21517
443	1.2165
442	1.21614
441	1.21668
440	1.21602
439	1.21659
438	1.21559
437	1.21522
436	1.21507
435	1.21513
434	1.21599
433	1.21717
432	1.21909
431	1.22188
430	1.22351
429	1.22487
428	1.22376
427	1.22224
426	1.21832
425	1.21208
424	1.2044
423	1.19783
422	1.19438
421	1.19508
420	1.197
419	1.20104
418	1.20417
417	1.20608
416	1.20619
415	1.20422
414	1.20022
413	1.19688
412	1.19552
411	1.19662
410	1.21447
409	1.21371
408	1.21274
407	1.2114
406	1.21165
405	1.21128
404	1.21128
403	1.21158
402	1.21111
401	1.21158
400	1.21071
399	1.20985
398	1.20946
397	1.20843
396	1.207
395	1.20548
394	1.20468
393	1.20436
392	1.20448
391	1.20354
390	1.20232
389	1.20161
388	1.2006
387	1.2006
386	1.19968
385	1.19957
384	1.199
383	1.19891
382	1.19907
381	1.19867
380	1.19803
379	1.19632
378	1.19443
377	1.19281
376	1.19267
375	1.19313
374	1.19503
373	1.19536
372	1.19473
371	1.19308
370	1.22177
369	1.21823
368	1.21439
367	1.21118
366	1.20826
365	1.20702
364	1.20457
363	1.20313
362	1.2009
361	1.1993
360	1.19747
359	1.19673
358	1.19568
357	1.19431
356	1.19224
355	1.19066
354	1.18949
353	1.18875
352	1.18911
351	1.18803
350	1.18704
349	1.18593
348	1.18527
347	1.18406
346	1.18386
345	1.18317
344	1.18365
343	1.1831
342	1.18276
341	1.1826
340	1.17306
339	1.1733
338	1.17305
337	1.17199
336	1.1705
335	1.16919
334	1.16923
333	1.16904
332	1.169
331	1.1687
330	1.16804
329	1.16796
328	1.16742
327	1.167
326	1.16622
325	1.1656
324	1.16502
323	1.16498
322	1.16416
321	1.16328
320	1.16161
319	1.16138
318	1.16067
317	1.15963
316	1.15828
315	1.15754
314	1.15642
313	1.1555
312	1.15434
311	1.15374
310	1.15378
309	1.15319
308	1.15236
307	1.15212
306	1.15201
305	1.15145
304	1.15062
303	1.14907
302	1.14796
301	1.14692
300	1.14635
299	1.14649
298	1.14581
297	1.14494
296	1.14297
295	1.14156
294	1.13918
293	1.13739
292	1.13548
291	1.13447
290	1.13298
289	1.132
288	1.13059
287	1.12925
286	1.12738
285	1.12545
284	1.1238
283	1.1225
282	1.12169
281	1.12055
280	1.11984
279	1.11854
278	1.11737
277	1.11606
276	1.11504
275	1.11382
274	1.11243
273	1.11129
272	1.11015
271	1.10921
270	1.10815
269	1.10651
268	1.10516
267	1.10377
266	1.1028
265	1.10151
264	1.10012
263	1.09903
262	1.09751
261	1.09555
260	1.09317
259	1.09073
258	1.08864
257	1.08561
256	1.08306
255	1.07951
254	1.0761
253	1.07175
252	1.06808
251	1.06334
250	1.05858
249	1.0534
248	1.04725
247	1.04108
246	1.03495
245	1.02916
244	1.02348
243	1.01699
242	1.01029
241	1.00254
240	0.994639
239	0.986117
238	0.977028
237	0.966535
236	0.955402
235	0.943548
234	0.931185
233	0.918413
232	0.905173
231	0.891145
230	0.877103
229	0.862659
228	0.848463
227	0.83288
226	0.817825
225	0.801719
224	0.785082
223	0.767702
222	0.749142
221	0.729702
220	0.709497
219	0.688119
218	0.666001
217	0.642006
216	0.61698
215	0.589709
214	0.560073
213	0.525866
212	0.488088
211	0.443903
210	0.392161
209	0.330792
208	0.256679
207	0.166816
206	0.0571236
205	-0.0770395
204	-0.24142
203	-0.44067
202	-0.676393
201	-0.937591
200	-1.19018



[コメント情報]
試料名	thf
オペレーター	
所属	
コメント	

[データ情報]
作成日時	2023/06/01 12:24
スタート	800 nm
エンド	200 nm
データ間隔	1 nm
データ数	601     

[測定情報]
機種名	V-750
シリアル番号	A012561799
測光モード	Abs
UV/Vis バンド幅	2 nm
レスポンス	Medium
走査速度	200 nm/min
光源	自動
光源切換	340 nm
