TITLE,
DATA TYPE,INFRARED SPECTRUM
ORIGIN,JASCO
OWNER,
DATE,25/08/18
TIME,18:55:55
SPECTROMETER/DATA SYSTEM,
LOCALE,1041
RESOLUTION,
DELTAX,0.964233
XUNITS,1/CM
YUNITS,TRANSMITTANCE
FIRSTX,  499.4729
LASTX, 4200.2010
NPOINTS,    3839
FIRSTY,    64.22946
MAXY,   100.08702
MINY,    64.22946
XYDATA
499.4729,64.2295
500.4372,73.5521
501.4014,87.6568
502.3656,97.5824
503.3299,99.9415
504.2941,97.1854
505.2583,93.2854
506.2226,91.1171
507.1868,91.6827
508.1510,94.0259
509.1153,96.1274
510.0795,96.5741
511.0437,95.3986
512.0080,93.5465
512.9722,91.9983
513.9365,91.2405
514.9007,91.0867
515.8649,90.8305
516.8292,89.7892
517.7934,87.8978
518.7576,85.7201
519.7219,83.9034
520.6861,82.735
521.6503,82.1214
522.6146,81.81
523.5788,81.6092
524.5430,81.4809
525.5073,81.4927
526.4715,81.6998
527.4357,82.0675
528.4000,82.494
529.3642,82.8774
530.3284,83.1498
531.2927,83.2705
532.2569,83.2241
533.2211,83.0464
534.1854,82.8508
535.1496,82.8058
536.1138,83.0512
537.0781,83.6024
538.0423,84.3194
539.0065,84.9765
539.9708,85.3945
540.9350,85.5409
541.8992,85.5244
542.8635,85.4951
543.8277,85.5286
544.7919,85.5767
545.7562,85.5152
546.7204,85.2533
547.6846,84.8227
548.6489,84.3792
549.6131,84.1155
550.5773,84.1421
551.5416,84.4138
552.5058,84.7443
553.4700,84.9
554.4343,84.724
555.3985,84.2245
556.3627,83.585
557.3270,83.0912
558.2912,83.0112
559.2554,83.4759
560.2197,84.4014
561.1839,85.4868
562.1481,86.3188
563.1124,86.5637
564.0766,86.1438
565.0408,85.2817
566.0051,84.385
566.9693,83.8434
567.9335,83.8345
568.8978,84.2318
569.8620,84.6941
570.8262,84.9021
571.7905,84.7648
572.7547,84.4384
573.7189,84.1751
574.6832,84.1394
575.6474,84.3166
576.6116,84.5695
577.5759,84.789
578.5401,84.9936
579.5043,85.283
580.4686,85.6978
581.4328,86.1217
582.3970,86.3201
583.3613,86.1019
584.3255,85.4784
585.2897,84.6847
586.2540,84.0459
587.2182,83.8024
588.1824,84.0083
589.1467,84.5316
590.1109,85.1254
591.0751,85.5387
592.0394,85.6302
593.0036,85.4326
593.9678,85.122
594.9321,84.9101
595.8963,84.9316
596.8605,85.1819
597.8248,85.5212
598.7890,85.7409
599.7532,85.6752
600.7175,85.3008
601.6817,84.7561
602.6459,84.2681
603.6102,84.0413
604.5744,84.1764
605.5386,84.6451
606.5029,85.3114
607.4671,85.9795
608.4313,86.455
609.3956,86.6102
610.3598,86.436
611.3240,86.0467
612.2883,85.6241
613.2525,85.329
614.2167,85.2363
615.1810,85.3224
616.1452,85.5053
617.1094,85.7047
618.0737,85.8826
619.0379,86.0327
620.0021,86.1427
620.9664,86.1787
621.9306,86.1121
622.8948,85.9607
623.8591,85.8014
624.8233,85.7316
625.7875,85.8002
626.7518,85.966
627.7160,86.1207
628.6802,86.1624
629.6445,86.0656
630.6087,85.9018
631.5729,85.8028
632.5372,85.8875
633.5014,86.193
634.4656,86.6443
635.4299,87.0832
636.3941,87.35
637.3583,87.3742
638.3226,87.2161
639.2868,87.0266
640.2510,86.9522
641.2153,87.0457
642.1795,87.2398
643.1437,87.3993
644.1080,87.4186
645.0722,87.2977
646.0364,87.1428
647.0007,87.0949
647.9649,87.2382
648.9291,87.5495
649.8934,87.924
650.8576,88.2534
651.8218,88.4912
652.7861,88.6526
653.7503,88.7669
654.7145,88.8355
655.6788,88.8347
656.6430,88.7543
657.6072,88.6312
658.5715,88.5437
659.5357,88.5683
660.4999,88.7302
661.4642,88.9855
662.4284,89.2576
663.3926,89.4907
664.3569,89.6666
665.3211,89.7823
666.2853,89.8152
667.2496,89.7046
668.2138,89.4118
669.1780,89.0491
670.1423,88.804
671.1065,88.7274
672.0707,88.7621
673.0350,88.8473
673.9992,88.9508
674.9634,89.0663
675.9277,89.2024
676.8919,89.3625
677.8561,89.5244
678.8204,89.6385
679.7846,89.6518
680.7488,89.5438
681.7131,89.3481
682.6773,89.1417
683.6415,89.0019
684.6058,88.9663
685.5700,89.0217
686.5342,89.123
687.4985,89.2252
688.4627,89.3082
689.4269,89.3801
690.3912,89.4624
691.3554,89.5697
692.3196,89.6984
693.2839,89.8299
694.2481,89.9383
695.2123,89.9992
696.1766,89.9956
697.1408,89.9258
698.1050,89.8112
699.0693,89.699
700.0335,89.6523
700.9977,89.7256
701.9620,89.9365
702.9262,90.2483
703.8904,90.5789
704.8547,90.8373
705.8189,90.973
706.7831,91.0064
707.7474,91.0186
708.7116,91.1037
709.6758,91.3109
710.6401,91.6112
711.6043,91.906
712.5685,92.076
713.5328,92.0466
714.4970,91.8293
715.4612,91.5101
716.4255,91.2009
717.3897,90.9884
718.3539,90.9023
719.3182,90.9058
720.2824,90.9146
721.2466,90.8438
722.2109,90.6556
723.1751,90.3734
724.1393,90.0587
725.1036,89.7775
726.0678,89.5725
727.0320,89.4482
727.9963,89.3746
728.9605,89.3079
729.9247,89.2183
730.8890,89.1064
731.8532,88.999
732.8174,88.9292
733.7817,88.9166
734.7459,88.9604
735.7101,89.0474
736.6744,89.1639
737.6386,89.3
738.6028,89.4456
739.5671,89.5853
740.5313,89.7018
741.4955,89.7885
742.4598,89.8608
743.4240,89.9523
744.3882,90.0953
745.3525,90.2962
746.3167,90.5243
747.2809,90.7231
748.2452,90.84
749.2094,90.8557
750.1736,90.7971
751.1379,90.7253
752.1021,90.7073
753.0663,90.7852
754.0306,90.9595
754.9948,91.1914
755.9590,91.4217
756.9233,91.5971
757.8875,91.6916
758.8517,91.7127
759.8160,91.6898
760.7802,91.6544
761.7444,91.6253
762.7087,91.6093
763.6729,91.6129
764.6371,91.6515
765.6014,91.7433
766.5656,91.8903
767.5298,92.062
768.4941,92.2002
769.4583,92.2483
770.4225,92.1859
771.3868,92.0439
772.3510,91.887
773.3152,91.7756
774.2795,91.734
775.2437,91.7453
776.2079,91.7744
777.1722,91.7983
778.1364,91.8195
779.1006,91.8554
780.0649,91.9147
781.0291,91.9815
781.9933,92.0208
782.9576,91.9998
783.9218,91.9089
784.8860,91.7662
785.8503,91.6044
786.8145,91.4503
787.7787,91.3116
788.7430,91.1791
789.7072,91.0398
790.6714,90.8917
791.6357,90.7491
792.5999,90.6371
793.5641,90.5767
794.5284,90.5709
795.4926,90.5984
796.4568,90.6196
797.4211,90.5929
798.3853,90.4948
799.3495,90.3325
800.3138,90.1414
801.2780,89.9672
802.2422,89.8432
803.2065,89.7752
804.1707,89.7431
805.1349,89.7178
806.0992,89.6813
807.0634,89.6362
808.0276,89.5995
808.9919,89.5887
809.9561,89.6116
810.9203,89.6673
811.8846,89.7557
812.8488,89.8826
813.8130,90.0565
814.7773,90.2778
815.7415,90.5314
816.7057,90.7912
817.6700,91.033
818.6342,91.2453
819.5984,91.4302
820.5627,91.593
821.5269,91.7332
822.4911,91.8434
823.4554,91.9172
824.4196,91.9574
825.3839,91.9758
826.3481,91.986
827.3123,91.9953
828.2766,92.0057
829.2408,92.0205
830.2050,92.049
831.1693,92.1034
832.1335,92.1876
833.0977,92.2904
834.0620,92.389
835.0262,92.463
835.9904,92.5079
836.9547,92.5356
837.9189,92.5612
838.8831,92.5878
839.8474,92.6017
840.8116,92.5856
841.7758,92.5398
842.7401,92.4935
843.7043,92.4959
844.6685,92.589
845.6328,92.7798
846.5970,93.0309
847.5612,93.2762
848.5255,93.4539
849.4897,93.5365
850.4539,93.5382
851.4182,93.499
852.3824,93.4555
853.3466,93.422
854.3109,93.3903
855.2751,93.3464
856.2393,93.2879
857.2036,93.2287
858.1678,93.188
859.1320,93.1744
860.0963,93.1779
861.0605,93.1759
862.0247,93.1478
862.9890,93.0877
863.9532,93.0061
864.9174,92.9219
865.8817,92.8513
866.8459,92.8004
867.8101,92.7642
868.7744,92.7296
869.7386,92.6812
870.7028,92.6063
871.6671,92.5008
872.6313,92.371
873.5955,92.23
874.5598,92.0894
875.5240,91.9496
876.4882,91.7997
877.4525,91.6267
878.4167,91.4306
879.3809,91.2332
880.3452,91.0704
881.3094,90.9718
882.2736,90.9392
883.2379,90.9416
884.2021,90.9316
885.1663,90.8741
886.1306,90.768
887.0948,90.6478
888.0590,90.5622
889.0233,90.5468
889.9875,90.6064
890.9517,90.719
891.9160,90.8532
892.8802,90.9876
893.8444,91.1161
894.8087,91.2401
895.7729,91.3555
896.7371,91.4477
897.7014,91.4992
898.6656,91.5043
899.6298,91.4781
900.5941,91.4513
901.5583,91.4542
902.5225,91.498
903.4868,91.5684
904.4510,91.6334
905.4152,91.6624
906.3795,91.6422
907.3437,91.5831
908.3079,91.5087
909.2722,91.4412
910.2364,91.389
911.2006,91.3471
912.1649,91.3059
913.1291,91.2621
914.0933,91.221
915.0576,91.1893
916.0218,91.1658
916.9860,91.1392
917.9503,91.0973
918.9145,91.0407
919.8787,90.9902
920.8430,90.9783
921.8072,91.029
922.7714,91.1402
923.7357,91.2817
924.6999,91.4111
925.6641,91.498
926.6284,91.5369
927.5926,91.5439
928.5568,91.5393
929.5211,91.5328
930.4853,91.5199
931.4495,91.4907
932.4138,91.4392
933.3780,91.3655
934.3422,91.2702
935.3065,91.1496
936.2707,90.9991
937.2349,90.8236
938.1992,90.6439
939.1634,90.4926
940.1276,90.398
941.0919,90.3692
942.0561,90.3912
943.0203,90.436
943.9846,90.4817
944.9488,90.5244
945.9130,90.5774
946.8773,90.6573
947.8415,90.7702
948.8057,90.9061
949.7700,91.0446
950.7342,91.1666
951.6984,91.2642
952.6627,91.3423
953.6269,91.4145
954.5911,91.4952
955.5554,91.5933
956.5196,91.7093
957.4838,91.8338
958.4481,91.9502
959.4123,92.0391
960.3765,92.0861
961.3408,92.0883
962.3050,92.0579
963.2692,92.0181
964.2335,91.9947
965.1977,92.0045
966.1619,92.0492
967.1262,92.116
968.0904,92.1845
969.0546,92.2357
970.0189,92.2576
970.9831,92.247
971.9473,92.2085
972.9116,92.1526
973.8758,92.0948
974.8400,92.0523
975.8043,92.0368
976.7685,92.045
977.7327,92.0532
978.6970,92.024
979.6612,91.9246
980.6254,91.7491
981.5897,91.5281
982.5539,91.3177
983.5181,91.1715
984.4824,91.1131
985.4466,91.1253
986.4108,91.1634
987.3751,91.1813
988.3393,91.1538
989.3035,91.0807
990.2678,90.9746
991.2320,90.8457
992.1962,90.6977
993.1605,90.5348
994.1247,90.3716
995.0889,90.2329
996.0532,90.1427
997.0174,90.108
997.9816,90.1132
998.9459,90.128
999.9101,90.1252
1000.8743,90.0944
1001.8386,90.0432
1002.8028,89.9858
1003.7670,89.9288
1004.7313,89.8641
1005.6955,89.7738
1006.6597,89.6442
1007.6240,89.4785
1008.5882,89.2999
1009.5524,89.1422
1010.5167,89.0318
1011.4809,88.9717
1012.4451,88.9356
1013.4094,88.8795
1014.3736,88.7625
1015.3378,88.5683
1016.3021,88.3121
1017.2663,88.0311
1018.2305,87.7641
1019.1948,87.5336
1020.1590,87.3407
1021.1232,87.1721
1022.0875,87.0128
1023.0517,86.8534
1024.0160,86.6902
1024.9802,86.5206
1025.9445,86.3421
1026.9087,86.1535
1027.8729,85.959
1028.8372,85.7672
1029.8014,85.587
1030.7656,85.4207
1031.7299,85.2613
1032.6941,85.0965
1033.6583,84.916
1034.6226,84.7186
1035.5868,84.5119
1036.5510,84.3073
1037.5153,84.1137
1038.4795,83.9342
1039.4437,83.7672
1040.4080,83.6083
1041.3722,83.4529
1042.3364,83.2972
1043.3007,83.1388
1044.2649,82.9777
1045.2291,82.817
1046.1934,82.6619
1047.1576,82.5169
1048.1218,82.3832
1049.0861,82.2575
1050.0503,82.1357
1051.0145,82.0183
1051.9788,81.9136
1052.9430,81.8342
1053.9072,81.7883
1054.8715,81.7722
1055.8357,81.7691
1056.7999,81.7593
1057.7642,81.7336
1058.7284,81.7009
1059.6926,81.6835
1060.6569,81.7015
1061.6211,81.7591
1062.5853,81.8417
1063.5496,81.9271
1064.5138,82.0025
1065.4780,82.0737
1066.4423,82.1614
1067.4065,82.2856
1068.3707,82.4502
1069.3350,82.6377
1070.2992,82.8174
1071.2634,82.9612
1072.2277,83.0579
1073.1919,83.1184
1074.1561,83.169
1075.1204,83.2371
1076.0846,83.3372
1077.0488,83.4629
1078.0131,83.5899
1078.9773,83.6893
1079.9415,83.7437
1080.9058,83.7564
1081.8700,83.7491
1082.8342,83.7482
1083.7985,83.7694
1084.7627,83.8097
1085.7269,83.8517
1086.6912,83.875
1087.6554,83.8674
1088.6196,83.8277
1089.5839,83.7619
1090.5481,83.6772
1091.5123,83.5799
1092.4766,83.477
1093.4408,83.3773
1094.4050,83.2884
1095.3693,83.2112
1096.3335,83.1357
1097.2977,83.0457
1098.2620,82.9283
1099.2262,82.7842
1100.1904,82.6295
1101.1547,82.4893
1102.1189,82.3847
1103.0831,82.3245
1104.0474,82.304
1105.0116,82.3123
1105.9758,82.3404
1106.9401,82.3866
1107.9043,82.4543
1108.8685,82.5476
1109.8328,82.667
1110.7970,82.8091
1111.7612,82.9702
1112.7255,83.1502
1113.6897,83.3539
1114.6539,83.5874
1115.6182,83.8524
1116.5824,84.1418
1117.5466,84.4386
1118.5109,84.7215
1119.4751,84.9722
1120.4393,85.1814
1121.4036,85.3496
1122.3678,85.4812
1123.3320,85.5784
1124.2963,85.6365
1125.2605,85.6467
1126.2247,85.6027
1127.1890,85.5078
1128.1532,85.3766
1129.1174,85.2305
1130.0817,85.0912
1131.0459,84.9749
1132.0101,84.893
1132.9744,84.8557
1133.9386,84.8755
1134.9028,84.9659
1135.8671,85.1343
1136.8313,85.3757
1137.7955,85.6729
1138.7598,86.0055
1139.7240,86.3628
1140.6882,86.7517
1141.6525,87.1928
1142.6167,87.7047
1143.5809,88.2877
1144.5452,88.918
1145.5094,89.5567
1146.4736,90.1683
1147.4379,90.7359
1148.4021,91.2623
1149.3663,91.7583
1150.3306,92.2282
1151.2948,92.6636
1152.2590,93.0497
1153.2233,93.3777
1154.1875,93.6521
1155.1517,93.8882
1156.1160,94.1016
1157.0802,94.2994
1158.0444,94.4781
1159.0087,94.6288
1159.9729,94.7446
1160.9371,94.8242
1161.9014,94.8707
1162.8656,94.889
1163.8298,94.8856
1164.7941,94.8689
1165.7583,94.8489
1166.7225,94.834
1167.6868,94.8266
1168.6510,94.821
1169.6152,94.8073
1170.5795,94.7785
1171.5437,94.7355
1172.5079,94.6863
1173.4722,94.6386
1174.4364,94.5925
1175.4006,94.5392
1176.3649,94.4683
1177.3291,94.377
1178.2933,94.2756
1179.2576,94.1818
1180.2218,94.1091
1181.1860,94.0563
1182.1503,94.0066
1183.1145,93.9364
1184.0787,93.8298
1185.0430,93.6878
1186.0072,93.5273
1186.9714,93.3716
1187.9357,93.2373
1188.8999,93.1285
1189.8641,93.0371
1190.8284,92.9495
1191.7926,92.8534
1192.7568,92.7406
1193.7211,92.6068
1194.6853,92.4513
1195.6495,92.2763
1196.6138,92.0887
1197.5780,91.8986
1198.5422,91.7163
1199.5065,91.5464
1200.4707,91.3845
1201.4349,91.2169
1202.3992,91.0264
1203.3634,90.7995
1204.3276,90.5318
1205.2919,90.228
1206.2561,89.8965
1207.2203,89.5426
1208.1846,89.1643
1209.1488,88.753
1210.1130,88.299
1211.0773,87.797
1212.0415,87.2486
1213.0057,86.6591
1213.9700,86.0327
1214.9342,85.3702
1215.8984,84.6711
1216.8627,83.9402
1217.8269,83.1925
1218.7911,82.4536
1219.7554,81.7551
1220.7196,81.1297
1221.6838,80.6091
1222.6481,80.2257
1223.6123,80.0124
1224.5765,79.9986
1225.5408,80.2013
1226.5050,80.6181
1227.4692,81.2269
1228.4335,81.9929
1229.3977,82.8777
1230.3619,83.8448
1231.3262,84.8598
1232.2904,85.888
1233.2546,86.895
1234.2189,87.8494
1235.1831,88.7289
1236.1473,89.5228
1237.1116,90.2319
1238.0758,90.8629
1239.0400,91.4227
1240.0043,91.9141
1240.9685,92.3344
1241.9327,92.6781
1242.8970,92.9414
1243.8612,93.1269
1244.8254,93.2465
1245.7897,93.3197
1246.7539,93.3695
1247.7181,93.415
1248.6824,93.4659
1249.6466,93.5213
1250.6108,93.5733
1251.5751,93.6143
1252.5393,93.6428
1253.5035,93.6644
1254.4678,93.6867
1255.4320,93.713
1256.3962,93.7377
1257.3605,93.7499
1258.3247,93.7408
1259.2889,93.7119
1260.2532,93.6762
1261.2174,93.6514
1262.1816,93.6498
1263.1459,93.6708
1264.1101,93.7029
1265.0743,93.7313
1266.0386,93.7468
1267.0028,93.7489
1267.9670,93.7442
1268.9313,93.7405
1269.8955,93.7417
1270.8597,93.7469
1271.8240,93.7515
1272.7882,93.7512
1273.7524,93.7442
1274.7167,93.7314
1275.6809,93.7154
1276.6451,93.6983
1277.6094,93.6806
1278.5736,93.6615
1279.5378,93.6401
1280.5021,93.6166
1281.4663,93.5934
1282.4305,93.5739
1283.3948,93.56
1284.3590,93.5496
1285.3232,93.5363
1286.2875,93.5119
1287.2517,93.4705
1288.2159,93.4124
1289.1802,93.3442
1290.1444,93.2753
1291.1086,93.2134
1292.0729,93.1618
1293.0371,93.1197
1294.0013,93.0842
1294.9656,93.0514
1295.9298,93.0168
1296.8940,92.9751
1297.8583,92.9216
1298.8225,92.8544
1299.7867,92.776
1300.7510,92.6931
1301.7152,92.613
1302.6794,92.5396
1303.6437,92.472
1304.6079,92.4063
1305.5721,92.3392
1306.5364,92.2708
1307.5006,92.204
1308.4648,92.1411
1309.4291,92.0809
1310.3933,92.0182
1311.3575,91.9462
1312.3218,91.8604
1313.2860,91.7601
1314.2502,91.6468
1315.2145,91.5214
1316.1787,91.3833
1317.1429,91.2312
1318.1072,91.0668
1319.0714,90.8946
1320.0356,90.7193
1320.9999,90.5406
1321.9641,90.3509
1322.9283,90.1382
1323.8926,89.8921
1324.8568,89.6092
1325.8210,89.2949
1326.7853,88.9591
1327.7495,88.6089
1328.7137,88.2426
1329.6780,87.8494
1330.6422,87.4168
1331.6064,86.9412
1332.5707,86.4318
1333.5349,85.9064
1334.4991,85.3788
1335.4634,84.8498
1336.4276,84.3062
1337.3918,83.7331
1338.3561,83.1343
1339.3203,82.5462
1340.2845,82.0208
1341.2488,81.5905
1342.2130,81.2542
1343.1772,80.9954
1344.1415,80.8022
1345.1057,80.6751
1346.0699,80.6223
1347.0342,80.6511
1347.9984,80.7603
1348.9626,80.9396
1349.9269,81.1764
1350.8911,81.4642
1351.8553,81.8081
1352.8196,82.2215
1353.7838,82.7163
1354.7480,83.2877
1355.7123,83.9072
1356.6765,84.534
1357.6407,85.1396
1358.6050,85.7249
1359.5692,86.3168
1360.5334,86.9466
1361.4977,87.6127
1362.4619,88.2577
1363.4261,88.7988
1364.3904,89.1903
1365.3546,89.4407
1366.3188,89.5794
1367.2831,89.6252
1368.2473,89.5805
1369.2115,89.4393
1370.1758,89.1966
1371.1400,88.8518
1372.1042,88.4117
1373.0685,87.9026
1374.0327,87.3858
1374.9969,86.9478
1375.9612,86.6574
1376.9254,86.5344
1377.8896,86.5638
1378.8539,86.7235
1379.8181,86.992
1380.7823,87.341
1381.7466,87.7341
1382.7108,88.1388
1383.6750,88.5375
1384.6393,88.9231
1385.6035,89.2784
1386.5677,89.5611
1387.5320,89.7201
1388.4962,89.7383
1389.4604,89.643
1390.4247,89.4693
1391.3889,89.2287
1392.3531,88.9064
1393.3174,88.4762
1394.2816,87.9194
1395.2458,87.2393
1396.2101,86.4586
1397.1743,85.6084
1398.1385,84.7299
1399.1028,83.8806
1400.0670,83.1213
1401.0313,82.4951
1401.9955,82.0197
1402.9597,81.7001
1403.9240,81.544
1404.8882,81.5611
1405.8524,81.7475
1406.8167,82.0765
1407.7809,82.517
1408.7451,83.0566
1409.7094,83.7006
1410.6736,84.4441
1411.6378,85.2448
1412.6021,86.0322
1413.5663,86.7517
1414.5305,87.4026
1415.4948,88.0398
1416.4590,88.7468
1417.4232,89.5761
1418.3875,90.4684
1419.3517,91.2575
1420.3159,91.8265
1421.2802,92.197
1422.2444,92.4514
1423.2086,92.6505
1424.1729,92.8158
1425.1371,92.9466
1426.1013,93.0375
1427.0656,93.0847
1428.0298,93.0835
1428.9940,93.0279
1429.9583,92.9195
1430.9225,92.7729
1431.8867,92.6061
1432.8510,92.4184
1433.8152,92.1773
1434.7794,91.8223
1435.7437,91.3039
1436.7079,90.6568
1437.6721,90.0107
1438.6364,89.4763
1439.6006,89.0702
1440.5648,88.7586
1441.5291,88.515
1442.4933,88.3359
1443.4575,88.2334
1444.4218,88.2228
1445.3860,88.3151
1446.3502,88.5149
1447.3145,88.8152
1448.2787,89.1876
1449.2429,89.5814
1450.2072,89.944
1451.1714,90.2443
1452.1356,90.4761
1453.0999,90.6494
1454.0641,90.7836
1455.0283,90.9098
1455.9926,91.0759
1456.9568,91.3118
1457.9210,91.5629
1458.8853,91.7587
1459.8495,91.9076
1460.8137,92.0543
1461.7780,92.2416
1462.7422,92.5067
1463.7064,92.8672
1464.6707,93.2909
1465.6349,93.6947
1466.5991,94.0133
1467.5634,94.2493
1468.5276,94.4463
1469.4918,94.6503
1470.4561,94.8968
1471.4203,95.2029
1472.3845,95.5432
1473.3488,95.8397
1474.3130,96.0338
1475.2772,96.1469
1476.2415,96.2277
1477.2057,96.3018
1478.1699,96.3717
1479.1342,96.4314
1480.0984,96.4747
1481.0626,96.5008
1482.0269,96.5151
1482.9911,96.5273
1483.9553,96.5464
1484.9196,96.5792
1485.8838,96.6291
1486.8480,96.6961
1487.8123,96.7717
1488.7765,96.8336
1489.7407,96.8591
1490.7050,96.8518
1491.6692,96.8335
1492.6334,96.8201
1493.5977,96.8165
1494.5619,96.8212
1495.5261,96.828
1496.4904,96.8281
1497.4546,96.8161
1498.4188,96.7982
1499.3831,96.7871
1500.3473,96.7889
1501.3115,96.8018
1502.2758,96.821
1503.2400,96.8419
1504.2042,96.8604
1505.1685,96.869
1506.1327,96.852
1507.0969,96.7952
1508.0612,96.7223
1509.0254,96.6697
1509.9896,96.6424
1510.9539,96.634
1511.9181,96.6408
1512.8823,96.659
1513.8466,96.6801
1514.8108,96.6883
1515.7750,96.6652
1516.7393,96.6019
1517.7035,96.5069
1518.6677,96.4012
1519.6320,96.3053
1520.5962,96.2318
1521.5604,96.1842
1522.5247,96.1617
1523.4889,96.1622
1524.4531,96.1809
1525.4174,96.2066
1526.3816,96.2236
1527.3458,96.2186
1528.3101,96.1876
1529.2743,96.1343
1530.2385,96.0648
1531.2028,95.9863
1532.1670,95.9088
1533.1312,95.8454
1534.0955,95.806
1535.0597,95.788
1536.0239,95.7816
1536.9882,95.7781
1537.9524,95.7729
1538.9166,95.7645
1539.8809,95.7551
1540.8451,95.7499
1541.8093,95.7488
1542.7736,95.7435
1543.7378,95.7292
1544.7020,95.7065
1545.6663,95.6784
1546.6305,95.6488
1547.5947,95.6204
1548.5590,95.5929
1549.5232,95.5619
1550.4874,95.52
1551.4517,95.4629
1552.4159,95.3956
1553.3801,95.3331
1554.3444,95.2968
1555.3086,95.3114
1556.2728,95.4057
1557.2371,95.5918
1558.2013,95.7865
1559.1655,95.8261
1560.1298,95.7245
1561.0940,95.6087
1562.0582,95.5313
1563.0225,95.4902
1563.9867,95.4715
1564.9509,95.463
1565.9152,95.4572
1566.8794,95.4525
1567.8436,95.452
1568.8079,95.4596
1569.7721,95.4744
1570.7363,95.4902
1571.7006,95.5018
1572.6648,95.5063
1573.6290,95.5005
1574.5933,95.4771
1575.5575,95.4281
1576.5217,95.3587
1577.4860,95.2927
1578.4502,95.2492
1579.4144,95.2282
1580.3787,95.2192
1581.3429,95.2105
1582.3071,95.1916
1583.2714,95.1575
1584.2356,95.1106
1585.1998,95.0608
1586.1641,95.0183
1587.1283,94.9875
1588.0925,94.965
1589.0568,94.9418
1590.0210,94.9087
1590.9852,94.8612
1591.9495,94.8014
1592.9137,94.736
1593.8779,94.6723
1594.8422,94.615
1595.8064,94.5636
1596.7706,94.5142
1597.7349,94.4623
1598.6991,94.4064
1599.6633,94.3486
1600.6276,94.2935
1601.5918,94.2453
1602.5560,94.2046
1603.5203,94.1677
1604.4845,94.1281
1605.4487,94.0803
1606.4130,94.0203
1607.3772,93.9454
1608.3414,93.8556
1609.3057,93.7557
1610.2699,93.6553
1611.2341,93.5642
1612.1984,93.4886
1613.1626,93.429
1614.1268,93.38
1615.0911,93.3286
1616.0553,93.2576
1617.0195,93.1615
1617.9838,93.0551
1618.9480,92.9546
1619.9122,92.8623
1620.8765,92.7691
1621.8407,92.6629
1622.8049,92.5371
1623.7692,92.3981
1624.7334,92.2614
1625.6976,92.1362
1626.6619,92.0191
1627.6261,91.9016
1628.5903,91.7813
1629.5546,91.6642
1630.5188,91.5582
1631.4830,91.4651
1632.4473,91.3774
1633.4115,91.2775
1634.3757,91.1405
1635.3400,90.9546
1636.3042,90.7511
1637.2684,90.5743
1638.2327,90.4232
1639.1969,90.273
1640.1611,90.1117
1641.1254,89.946
1642.0896,89.7912
1643.0538,89.6607
1644.0181,89.5537
1644.9823,89.4454
1645.9465,89.292
1646.9108,89.0789
1647.8750,88.8561
1648.8392,88.6752
1649.8035,88.5362
1650.7677,88.4003
1651.7319,88.1989
1652.6962,87.8584
1653.6604,87.4184
1654.6246,87.0365
1655.5889,86.7574
1656.5531,86.5264
1657.5173,86.2998
1658.4816,86.0555
1659.4458,85.774
1660.4100,85.4269
1661.3743,84.9898
1662.3385,84.4815
1663.3027,83.9726
1664.2670,83.5253
1665.2312,83.1406
1666.1954,82.7646
1667.1597,82.3107
1668.1239,81.6883
1669.0881,80.8716
1670.0524,79.9679
1671.0166,79.133
1671.9808,78.3923
1672.9451,77.6358
1673.9093,76.7418
1674.8735,75.6821
1675.8378,74.5589
1676.8020,73.5309
1677.7662,72.6843
1678.7305,71.9989
1679.6947,71.4098
1680.6589,70.8685
1681.6232,70.3748
1682.5874,69.9938
1683.5516,69.8241
1684.5159,69.8696
1685.4801,70.0209
1686.4443,70.2188
1687.4086,70.484
1688.3728,70.8358
1689.3370,71.2543
1690.3013,71.6955
1691.2655,72.1287
1692.2297,72.5622
1693.1940,73.0418
1694.1582,73.6262
1695.1224,74.3528
1696.0867,75.2094
1697.0509,76.1454
1698.0151,77.1305
1698.9794,78.1746
1699.9436,79.249
1700.9078,80.2581
1701.8721,81.1325
1702.8363,81.9011
1703.8005,82.6714
1704.7648,83.5564
1705.7290,84.5882
1706.6932,85.6827
1707.6575,86.7105
1708.6217,87.607
1709.5859,88.3968
1710.5502,89.1386
1711.5144,89.8703
1712.4786,90.5951
1713.4429,91.3016
1714.4071,92.0007
1715.3713,92.7479
1716.3356,93.5811
1717.2998,94.3906
1718.2640,94.9946
1719.2283,95.3643
1720.1925,95.5953
1721.1567,95.7797
1722.1210,95.9649
1723.0852,96.1599
1724.0494,96.3505
1725.0137,96.5186
1725.9779,96.6568
1726.9421,96.7711
1727.9064,96.8716
1728.8706,96.9645
1729.8348,97.0513
1730.7991,97.1348
1731.7633,97.2238
1732.7275,97.3287
1733.6918,97.4455
1734.6560,97.5527
1735.6202,97.6343
1736.5845,97.6909
1737.5487,97.728
1738.5129,97.7471
1739.4772,97.7465
1740.4414,97.7268
1741.4056,97.6964
1742.3699,97.6689
1743.3341,97.6545
1744.2983,97.6563
1745.2626,97.6714
1746.2268,97.694
1747.1910,97.7141
1748.1553,97.7165
1749.1195,97.6864
1750.0837,97.6246
1751.0480,97.5485
1752.0122,97.4734
1752.9764,97.3995
1753.9407,97.3157
1754.9049,97.2099
1755.8691,97.0757
1756.8334,96.9145
1757.7976,96.7295
1758.7618,96.5155
1759.7261,96.2571
1760.6903,95.9436
1761.6545,95.5891
1762.6188,95.2351
1763.5830,94.9251
1764.5472,94.6798
1765.5115,94.4959
1766.4757,94.3621
1767.4399,94.2709
1768.4042,94.2241
1769.3684,94.2326
1770.3326,94.3138
1771.2969,94.4813
1772.2611,94.7241
1773.2253,95.0008
1774.1896,95.2702
1775.1538,95.5197
1776.1180,95.7606
1777.0823,96.0116
1778.0465,96.2857
1779.0107,96.5798
1779.9750,96.8731
1780.9392,97.138
1781.9034,97.3607
1782.8677,97.5476
1783.8319,97.7153
1784.7961,97.8737
1785.7604,98.0211
1786.7246,98.1492
1787.6888,98.2532
1788.6531,98.334
1789.6173,98.3972
1790.5815,98.4484
1791.5458,98.4911
1792.5100,98.5266
1793.4742,98.5564
1794.4385,98.5843
1795.4027,98.6141
1796.3669,98.647
1797.3312,98.6813
1798.2954,98.7116
1799.2596,98.7309
1800.2239,98.7346
1801.1881,98.7252
1802.1523,98.711
1803.1166,98.6998
1804.0808,98.6941
1805.0450,98.6921
1806.0093,98.6909
1806.9735,98.6901
1807.9377,98.6927
1808.9020,98.7037
1809.8662,98.7257
1810.8304,98.755
1811.7947,98.7815
1812.7589,98.7949
1813.7231,98.79
1814.6874,98.7684
1815.6516,98.7371
1816.6158,98.7062
1817.5801,98.6862
1818.5443,98.6834
1819.5085,98.697
1820.4728,98.7207
1821.4370,98.7466
1822.4012,98.7686
1823.3655,98.7844
1824.3297,98.7957
1825.2939,98.8061
1826.2582,98.8172
1827.2224,98.827
1828.1866,98.8314
1829.1509,98.8277
1830.1151,98.8176
1831.0793,98.8066
1832.0436,98.7979
1833.0078,98.7906
1833.9720,98.7813
1834.9363,98.768
1835.9005,98.7527
1836.8647,98.7416
1837.8290,98.7411
1838.7932,98.753
1839.7574,98.7736
1840.7217,98.7962
1841.6859,98.8144
1842.6501,98.8232
1843.6144,98.8215
1844.5786,98.8127
1845.5428,98.8027
1846.5071,98.796
1847.4713,98.7945
1848.4355,98.7989
1849.3998,98.8087
1850.3640,98.8212
1851.3282,98.8315
1852.2925,98.8341
1853.2567,98.8266
1854.2209,98.8125
1855.1852,98.7996
1856.1494,98.7958
1857.1136,98.803
1858.0779,98.8155
1859.0421,98.8227
1860.0063,98.8165
1860.9706,98.797
1861.9348,98.7724
1862.8990,98.7542
1863.8633,98.7502
1864.8275,98.7627
1865.7917,98.7884
1866.7560,98.8197
1867.7202,98.8456
1868.6844,98.8559
1869.6487,98.8469
1870.6129,98.8229
1871.5771,98.7912
1872.5414,98.759
1873.5056,98.7331
1874.4698,98.7191
1875.4341,98.7196
1876.3983,98.732
1877.3625,98.7486
1878.3268,98.7613
1879.2910,98.7665
1880.2552,98.7665
1881.2195,98.7665
1882.1837,98.7697
1883.1479,98.775
1884.1122,98.7783
1885.0764,98.7768
1886.0406,98.7713
1887.0049,98.7659
1887.9691,98.7652
1888.9333,98.7705
1889.8976,98.7787
1890.8618,98.7848
1891.8260,98.7861
1892.7903,98.783
1893.7545,98.7769
1894.7188,98.7681
1895.6830,98.7556
1896.6472,98.7387
1897.6115,98.7188
1898.5757,98.6999
1899.5399,98.6875
1900.5042,98.6849
1901.4684,98.692
1902.4326,98.7049
1903.3969,98.7175
1904.3611,98.7246
1905.3253,98.7241
1906.2896,98.7169
1907.2538,98.7047
1908.2180,98.689
1909.1823,98.6703
1910.1465,98.65
1911.1107,98.6306
1912.0750,98.616
1913.0392,98.6091
1914.0034,98.6103
1914.9677,98.6169
1915.9319,98.6236
1916.8961,98.6255
1917.8604,98.6213
1918.8246,98.6143
1919.7888,98.6095
1920.7531,98.6089
1921.7173,98.61
1922.6815,98.6082
1923.6458,98.6014
1924.6100,98.5926
1925.5742,98.588
1926.5385,98.5924
1927.5027,98.6054
1928.4669,98.6219
1929.4312,98.6352
1930.3954,98.6406
1931.3596,98.6385
1932.3239,98.633
1933.2881,98.6289
1934.2523,98.6278
1935.2166,98.6285
1936.1808,98.6279
1937.1450,98.6245
1938.1093,98.6186
1939.0735,98.6124
1940.0377,98.6088
1941.0020,98.6099
1941.9662,98.6154
1942.9304,98.6221
1943.8947,98.6244
1944.8589,98.6175
1945.8231,98.6009
1946.7874,98.5791
1947.7516,98.5603
1948.7158,98.5529
1949.6801,98.5608
1950.6443,98.581
1951.6085,98.6044
1952.5728,98.6211
1953.5370,98.6253
1954.5012,98.6187
1955.4655,98.6086
1956.4297,98.6034
1957.3939,98.6074
1958.3582,98.6193
1959.3224,98.6338
1960.2866,98.645
1961.2509,98.6496
1962.2151,98.648
1963.1793,98.6433
1964.1436,98.6394
1965.1078,98.6387
1966.0720,98.6411
1967.0363,98.6437
1968.0005,98.6432
1968.9647,98.6378
1969.9290,98.6281
1970.8932,98.6167
1971.8574,98.6061
1972.8217,98.5984
1973.7859,98.5947
1974.7501,98.596
1975.7144,98.6026
1976.6786,98.6133
1977.6428,98.6245
1978.6071,98.6316
1979.5713,98.6304
1980.5355,98.6207
1981.4998,98.6071
1982.4640,98.5965
1983.4282,98.5937
1984.3925,98.5986
1985.3567,98.6057
1986.3209,98.6086
1987.2852,98.6044
1988.2494,98.5959
1989.2136,98.5904
1990.1779,98.5941
1991.1421,98.6081
1992.1063,98.6264
1993.0706,98.6403
1994.0348,98.6434
1994.9990,98.6348
1995.9633,98.6178
1996.9275,98.5975
1997.8917,98.5785
1998.8560,98.5643
1999.8202,98.5574
2000.7844,98.5589
2001.7487,98.5681
2002.7129,98.5823
2003.6771,98.5975
2004.6414,98.6103
2005.6056,98.6193
2006.5698,98.6253
2007.5341,98.6297
2008.4983,98.6332
2009.4625,98.6341
2010.4268,98.6304
2011.3910,98.6216
2012.3552,98.6107
2013.3195,98.603
2014.2837,98.6038
2015.2479,98.6149
2016.2122,98.6327
2017.1764,98.6503
2018.1406,98.6608
2019.1049,98.6615
2020.0691,98.655
2021.0333,98.6466
2021.9976,98.6411
2022.9618,98.6407
2023.9260,98.6449
2024.8903,98.6511
2025.8545,98.6561
2026.8187,98.6573
2027.7830,98.6536
2028.7472,98.6452
2029.7114,98.6345
2030.6757,98.6257
2031.6399,98.6242
2032.6041,98.6341
2033.5684,98.6558
2034.5326,98.6837
2035.4968,98.7081
2036.4611,98.7184
2037.4253,98.7092
2038.3895,98.6829
2039.3538,98.6493
2040.3180,98.6209
2041.2822,98.6066
2042.2465,98.6071
2043.2107,98.6162
2044.1749,98.6255
2045.1392,98.6303
2046.1034,98.6306
2047.0676,98.6292
2048.0320,98.6278
2048.9961,98.6247
2049.9604,98.616
2050.9246,98.5997
2051.8889,98.5782
2052.8530,98.5582
2053.8174,98.5468
2054.7815,98.548
2055.7458,98.5606
2056.7100,98.5792
2057.6743,98.5975
2058.6384,98.6106
2059.6028,98.6169
2060.5669,98.6172
2061.5313,98.614
2062.4954,98.6104
2063.4597,98.6087
2064.4238,98.6103
2065.3882,98.6144
2066.3523,98.6188
2067.3167,98.6207
2068.2808,98.6184
2069.2451,98.6123
2070.2092,98.6042
2071.1736,98.597
2072.1377,98.594
2073.1021,98.5975
2074.0662,98.6085
2075.0305,98.6255
2075.9946,98.6438
2076.9590,98.6565
2077.9231,98.6569
2078.8875,98.6422
2079.8516,98.6164
2080.8159,98.5891
2081.7800,98.5715
2082.7444,98.5706
2083.7085,98.5854
2084.6729,98.6082
2085.6370,98.6285
2086.6013,98.639
2087.5654,98.6384
2088.5298,98.6302
2089.4939,98.6205
2090.4583,98.614
2091.4224,98.6127
2092.3867,98.6169
2093.3508,98.6253
2094.3152,98.636
2095.2793,98.6461
2096.2437,98.652
2097.2078,98.6506
2098.1721,98.6409
2099.1362,98.6248
2100.1006,98.606
2101.0647,98.5886
2102.0291,98.5755
2102.9932,98.5677
2103.9575,98.5652
2104.9216,98.5677
2105.8860,98.574
2106.8501,98.5825
2107.8145,98.5908
2108.7786,98.5964
2109.7429,98.598
2110.7070,98.5964
2111.6714,98.5932
2112.6355,98.5899
2113.5999,98.5872
2114.5640,98.585
2115.5283,98.5834
2116.4924,98.5834
2117.4568,98.586
2118.4209,98.5914
2119.3853,98.5979
2120.3494,98.6027
2121.3137,98.6032
2122.2778,98.599
2123.2422,98.5919
2124.2063,98.5846
2125.1707,98.5791
2126.1348,98.5754
2127.0991,98.5721
2128.0632,98.5679
2129.0276,98.5628
2129.9917,98.558
2130.9561,98.5552
2131.9202,98.5549
2132.8845,98.5566
2133.8486,98.5597
2134.8130,98.5647
2135.7771,98.5734
2136.7415,98.5881
2137.7056,98.609
2138.6699,98.6333
2139.6340,98.6547
2140.5984,98.6665
2141.5625,98.6653
2142.5269,98.653
2143.4910,98.6368
2144.4553,98.6258
2145.4194,98.6261
2146.3838,98.638
2147.3479,98.6554
2148.3123,98.6696
2149.2764,98.6725
2150.2407,98.6606
2151.2048,98.6355
2152.1692,98.603
2153.1333,98.5706
2154.0977,98.5457
2155.0618,98.5334
2156.0261,98.5355
2156.9902,98.5495
2157.9546,98.57
2158.9187,98.5907
2159.8831,98.6075
2160.8472,98.6199
2161.8115,98.6299
2162.7756,98.6391
2163.7400,98.6464
2164.7041,98.6486
2165.6685,98.6434
2166.6326,98.6328
2167.5969,98.623
2168.5610,98.6214
2169.5254,98.6312
2170.4895,98.6485
2171.4539,98.6649
2172.4180,98.6722
2173.3823,98.668
2174.3464,98.6567
2175.3108,98.6458
2176.2749,98.6411
2177.2393,98.6436
2178.2034,98.6506
2179.1677,98.659
2180.1318,98.6682
2181.0962,98.679
2182.0603,98.6918
2183.0247,98.7035
2183.9888,98.709
2184.9531,98.7041
2185.9172,98.6892
2186.8816,98.67
2187.8457,98.6551
2188.8101,98.6513
2189.7742,98.6596
2190.7385,98.6753
2191.7026,98.6913
2192.6670,98.7019
2193.6311,98.7053
2194.5955,98.7027
2195.5596,98.6963
2196.5239,98.6865
2197.4880,98.6725
2198.4524,98.6546
2199.4165,98.6358
2200.3809,98.6226
2201.3450,98.6211
2202.3093,98.6336
2203.2734,98.6563
2204.2378,98.6808
2205.2019,98.6985
2206.1663,98.7045
2207.1304,98.6998
2208.0947,98.6894
2209.0588,98.6788
2210.0232,98.6709
2210.9873,98.6657
2211.9517,98.6609
2212.9158,98.6546
2213.8801,98.6464
2214.8442,98.638
2215.8086,98.6314
2216.7727,98.6281
2217.7371,98.6279
2218.7012,98.6292
2219.6655,98.6295
2220.6296,98.627
2221.5940,98.6209
2222.5581,98.6116
2223.5225,98.5997
2224.4866,98.5862
2225.4509,98.5715
2226.4150,98.5567
2227.3794,98.543
2228.3435,98.5324
2229.3079,98.5269
2230.2720,98.5279
2231.2363,98.535
2232.2004,98.5458
2233.1648,98.5563
2234.1289,98.562
2235.0933,98.5603
2236.0574,98.5523
2237.0217,98.5432
2237.9858,98.5396
2238.9502,98.5456
2239.9143,98.5595
2240.8787,98.5736
2241.8428,98.5788
2242.8071,98.5706
2243.7712,98.5525
2244.7356,98.5341
2245.6997,98.5249
2246.6641,98.5276
2247.6282,98.5361
2248.5925,98.5395
2249.5566,98.5297
2250.5210,98.5073
2251.4851,98.4818
2252.4495,98.4663
2253.4136,98.4701
2254.3779,98.4943
2255.3420,98.5311
2256.3064,98.568
2257.2705,98.5944
2258.2349,98.6054
2259.1990,98.6039
2260.1633,98.5982
2261.1274,98.5982
2262.0918,98.6106
2263.0559,98.636
2264.0203,98.669
2264.9844,98.7008
2265.9487,98.7237
2266.9128,98.7339
2267.8772,98.7328
2268.8413,98.7252
2269.8057,98.7168
2270.7698,98.7111
2271.7341,98.7096
2272.6982,98.712
2273.6626,98.7179
2274.6267,98.7272
2275.5911,98.7395
2276.5552,98.7539
2277.5195,98.7681
2278.4836,98.7795
2279.4480,98.7867
2280.4121,98.7896
2281.3765,98.7892
2282.3406,98.786
2283.3049,98.7787
2284.2690,98.765
2285.2334,98.7437
2286.1975,98.7174
2287.1619,98.6935
2288.1260,98.6815
2289.0903,98.6882
2290.0544,98.7132
2291.0188,98.7487
2291.9829,98.7827
2292.9473,98.8059
2293.9114,98.8152
2294.8757,98.8145
2295.8398,98.8095
2296.8042,98.8036
2297.7683,98.7954
2298.7327,98.7808
2299.6968,98.7581
2300.6611,98.7305
2301.6252,98.7065
2302.5896,98.6954
2303.5537,98.7037
2304.5181,98.7322
2305.4822,98.7768
2306.4465,98.83
2307.4106,98.8832
2308.3750,98.9285
2309.3391,98.9593
2310.3035,98.9725
2311.2676,98.9689
2312.2319,98.9537
2313.1960,98.9343
2314.1604,98.917
2315.1245,98.9045
2316.0889,98.8948
2317.0530,98.8835
2318.0173,98.8675
2318.9814,98.849
2319.9458,98.8376
2320.9099,98.8469
2321.8743,98.8874
2322.8384,98.9592
2323.8027,99.0503
2324.7668,99.1429
2325.7312,99.2224
2326.6953,99.2837
2327.6597,99.3303
2328.6238,99.37
2329.5881,99.4072
2330.5522,99.439
2331.5166,99.4549
2332.4807,99.4414
2333.4451,99.3891
2334.4092,99.2982
2335.3735,99.183
2336.3376,99.0717
2337.3020,99.0006
2338.2661,98.9993
2339.2305,99.0751
2340.1946,99.2053
2341.1589,99.3416
2342.1230,99.4237
2343.0874,99.4069
2344.0515,99.298
2345.0159,99.1533
2345.9800,99.0313
2346.9443,98.9604
2347.9084,98.9467
2348.8728,98.9894
2349.8369,99.088
2350.8013,99.2403
2351.7654,99.4336
2352.7297,99.6311
2353.6938,99.7658
2354.6582,99.7639
2355.6223,99.5921
2356.5867,99.2818
2357.5508,98.9178
2358.5151,98.6262
2359.4792,98.5469
2360.4436,98.759
2361.4077,99.2068
2362.3721,99.7071
2363.3362,100.043
2364.3005,100.087
2365.2646,99.873
2366.2290,99.5526
2367.1931,99.2826
2368.1575,99.1402
2369.1216,99.1143
2370.0859,99.1466
2371.0500,99.1805
2372.0144,99.1857
2372.9785,99.1582
2373.9429,99.1075
2374.9070,99.0455
2375.8713,98.9817
2376.8354,98.9229
2377.7998,98.8737
2378.7639,98.8364
2379.7283,98.811
2380.6924,98.7953
2381.6567,98.7854
2382.6208,98.7775
2383.5852,98.7675
2384.5493,98.7526
2385.5137,98.7311
2386.4778,98.7031
2387.4421,98.6708
2388.4063,98.6381
2389.3706,98.6091
2390.3347,98.5863
2391.2991,98.5702
2392.2632,98.5599
2393.2275,98.5548
2394.1917,98.5558
2395.1560,98.5648
2396.1201,98.5822
2397.0845,98.6046
2398.0486,98.6245
2399.0129,98.6327
2399.9771,98.6235
2400.9414,98.5977
2401.9055,98.5632
2402.8699,98.531
2403.8340,98.5104
2404.7983,98.5056
2405.7625,98.5153
2406.7268,98.5353
2407.6909,98.5611
2408.6553,98.5892
2409.6194,98.6167
2410.5837,98.6406
2411.5479,98.6576
2412.5122,98.6657
2413.4763,98.6645
2414.4407,98.6548
2415.4048,98.6383
2416.3691,98.6165
2417.3333,98.5919
2418.2976,98.5692
2419.2617,98.5546
2420.2261,98.5538
2421.1902,98.5683
2422.1545,98.5923
2423.1187,98.6148
2424.0830,98.6239
2425.0471,98.6133
2426.0115,98.5852
2426.9756,98.5491
2427.9399,98.5163
2428.9041,98.495
2429.8684,98.4871
2430.8325,98.4895
2431.7969,98.4976
2432.7610,98.5083
2433.7253,98.5208
2434.6895,98.5357
2435.6538,98.5526
2436.6179,98.5697
2437.5823,98.584
2438.5464,98.5931
2439.5107,98.5963
2440.4749,98.5942
2441.4392,98.5877
2442.4033,98.5775
2443.3677,98.5638
2444.3318,98.548
2445.2961,98.5333
2446.2603,98.524
2447.2246,98.523
2448.1887,98.5297
2449.1531,98.5394
2450.1172,98.545
2451.0815,98.5407
2452.0457,98.5255
2453.0100,98.5036
2453.9741,98.4822
2454.9385,98.4674
2455.9026,98.4617
2456.8669,98.4637
2457.8311,98.4704
2458.7954,98.4801
2459.7595,98.4929
2460.7239,98.5092
2461.6880,98.5271
2462.6523,98.5409
2463.6165,98.5434
2464.5808,98.5307
2465.5449,98.5061
2466.5093,98.4797
2467.4734,98.4638
2468.4377,98.4656
2469.4019,98.4834
2470.3662,98.5084
2471.3303,98.5309
2472.2947,98.5466
2473.2588,98.5577
2474.2231,98.5689
2475.1873,98.5809
2476.1516,98.588
2477.1157,98.5818
2478.0801,98.5584
2479.0442,98.524
2480.0085,98.4932
2480.9727,98.4808
2481.9370,98.4924
2482.9011,98.5207
2483.8655,98.549
2484.8296,98.5607
2485.7939,98.5488
2486.7581,98.5191
2487.7224,98.486
2488.6865,98.4647
2489.6509,98.4635
2490.6150,98.481
2491.5793,98.508
2492.5435,98.5334
2493.5078,98.5492
2494.4719,98.5541
2495.4363,98.5518
2496.4004,98.5484
2497.3647,98.5477
2498.3289,98.5497
2499.2932,98.5513
2500.2573,98.549
2501.2217,98.5426
2502.1858,98.5355
2503.1501,98.5329
2504.1143,98.5383
2505.0786,98.5508
2506.0427,98.5659
2507.0071,98.5778
2507.9712,98.5826
2508.9355,98.5802
2509.8997,98.5732
2510.8640,98.5648
2511.8281,98.5564
2512.7925,98.5483
2513.7566,98.5399
2514.7209,98.5312
2515.6851,98.5227
2516.6494,98.5149
2517.6135,98.5078
2518.5779,98.5012
2519.5420,98.4953
2520.5063,98.4907
2521.4705,98.488
2522.4348,98.4866
2523.3989,98.4847
2524.3633,98.4807
2525.3274,98.4747
2526.2917,98.4693
2527.2559,98.4682
2528.2202,98.4739
2529.1843,98.4856
2530.1487,98.4999
2531.1128,98.5124
2532.0771,98.5212
2533.0413,98.5273
2534.0056,98.5334
2534.9697,98.541
2535.9341,98.5485
2536.8982,98.5518
2537.8625,98.5474
2538.8267,98.5354
2539.7910,98.5202
2540.7551,98.5086
2541.7195,98.5048
2542.6836,98.5076
2543.6479,98.5107
2544.6121,98.5066
2545.5764,98.4918
2546.5405,98.4695
2547.5049,98.4481
2548.4690,98.4361
2549.4333,98.438
2550.3975,98.4513
2551.3618,98.4693
2552.3259,98.484
2553.2903,98.4905
2554.2544,98.4881
2555.2188,98.4789
2556.1829,98.4664
2557.1472,98.4537
2558.1113,98.4424
2559.0757,98.4336
2560.0398,98.4279
2561.0042,98.4257
2561.9683,98.4271
2562.9326,98.4316
2563.8967,98.4381
2564.8611,98.4455
2565.8252,98.4535
2566.7896,98.4627
2567.7537,98.4745
2568.7180,98.4886
2569.6821,98.5023
2570.6465,98.5103
2571.6106,98.5073
2572.5750,98.4918
2573.5391,98.4675
2574.5034,98.4425
2575.4675,98.4245
2576.4319,98.417
2577.3960,98.4176
2578.3604,98.4209
2579.3245,98.4228
2580.2888,98.4236
2581.2529,98.4272
2582.2173,98.4374
2583.1814,98.4541
2584.1458,98.4723
2585.1099,98.4844
2586.0742,98.4847
2587.0383,98.4725
2588.0027,98.4518
2588.9668,98.4295
2589.9312,98.4113
2590.8953,98.4002
2591.8596,98.3967
2592.8237,98.4002
2593.7881,98.4106
2594.7522,98.4275
2595.7166,98.4486
2596.6807,98.4691
2597.6450,98.4829
2598.6091,98.4857
2599.5735,98.4781
2600.5376,98.465
2601.5020,98.4525
2602.4661,98.4437
2603.4304,98.4377
2604.3945,98.4318
2605.3589,98.4256
2606.3230,98.4225
2607.2874,98.4267
2608.2515,98.438
2609.2158,98.4488
2610.1799,98.4477
2611.1443,98.427
2612.1084,98.3897
2613.0728,98.349
2614.0369,98.3207
2615.0012,98.3136
2615.9653,98.3244
2616.9297,98.3407
2617.8938,98.3498
2618.8582,98.3467
2619.8223,98.3358
2620.7866,98.326
2621.7507,98.3237
2622.7151,98.3286
2623.6792,98.334
2624.6436,98.3321
2625.6077,98.3187
2626.5720,98.2955
2627.5361,98.2688
2628.5005,98.2464
2629.4646,98.2346
2630.4290,98.2352
2631.3931,98.2453
2632.3574,98.2575
2633.3215,98.2633
2634.2859,98.2572
2635.2500,98.2399
2636.2144,98.2193
2637.1785,98.2066
2638.1428,98.2102
2639.1069,98.23
2640.0713,98.2566
2641.0354,98.2761
2641.9998,98.2788
2642.9639,98.2654
2643.9282,98.2474
2644.8923,98.2401
2645.8567,98.2532
2646.8208,98.2839
2647.7852,98.3189
2648.7493,98.3418
2649.7136,98.3436
2650.6777,98.3275
2651.6421,98.3066
2652.6062,98.2954
2653.5706,98.3017
2654.5347,98.3226
2655.4990,98.3483
2656.4631,98.3688
2657.4275,98.3798
2658.3916,98.3838
2659.3560,98.3862
2660.3201,98.3899
2661.2844,98.3923
2662.2485,98.3872
2663.2129,98.3696
2664.1770,98.3404
2665.1414,98.3065
2666.1055,98.2778
2667.0698,98.2613
2668.0339,98.2573
2668.9983,98.2602
2669.9624,98.2628
2670.9268,98.2618
2671.8909,98.2598
2672.8552,98.2621
2673.8193,98.2722
2674.7837,98.2878
2675.7478,98.3013
2676.7122,98.3052
2677.6763,98.2974
2678.6406,98.2831
2679.6047,98.2715
2680.5691,98.2692
2681.5332,98.2749
2682.4976,98.2802
2683.4617,98.2743
2684.4260,98.2512
2685.3901,98.2147
2686.3545,98.1771
2687.3186,98.1534
2688.2830,98.1544
2689.2471,98.181
2690.2114,98.2237
2691.1755,98.2664
2692.1399,98.2931
2693.1040,98.2946
2694.0684,98.2726
2695.0325,98.2378
2695.9968,98.205
2696.9609,98.1853
2697.9253,98.1816
2698.8894,98.1885
2699.8538,98.1968
2700.8179,98.1997
2701.7822,98.1957
2702.7463,98.188
2703.7107,98.1805
2704.6748,98.1749
2705.6392,98.1702
2706.6033,98.165
2707.5676,98.1599
2708.5317,98.1577
2709.4961,98.1611
2710.4602,98.1705
2711.4246,98.183
2712.3887,98.1934
2713.3530,98.1968
2714.3171,98.1902
2715.2815,98.1733
2716.2456,98.148
2717.2100,98.1185
2718.1741,98.0905
2719.1384,98.0698
2720.1025,98.0603
2721.0669,98.0621
2722.0310,98.0717
2722.9954,98.0837
2723.9595,98.0941
2724.9238,98.1014
2725.8879,98.1057
2726.8523,98.1068
2727.8164,98.1025
2728.7808,98.0901
2729.7449,98.0694
2730.7092,98.0438
2731.6733,98.0201
2732.6377,98.0046
2733.6018,97.9996
2734.5662,98.0026
2735.5303,98.0082
2736.4946,98.0112
2737.4587,98.0099
2738.4231,98.0049
2739.3872,97.9979
2740.3516,97.9892
2741.3157,97.9772
2742.2800,97.9602
2743.2441,97.9381
2744.2085,97.9136
2745.1726,97.8921
2746.1370,97.8796
2747.1011,97.881
2748.0654,97.8979
2749.0295,97.9285
2749.9939,97.9667
2750.9580,98.0039
2751.9224,98.0306
2752.8865,98.0392
2753.8508,98.0266
2754.8149,97.9955
2755.7793,97.9537
2756.7434,97.9119
2757.7078,97.8803
2758.6719,97.8656
2759.6362,97.8697
2760.6003,97.8896
2761.5647,97.9189
2762.5288,97.9489
2763.4932,97.9708
2764.4573,97.9784
2765.4216,97.9703
2766.3857,97.9511
2767.3501,97.93
2768.3142,97.9167
2769.2786,97.9168
2770.2427,97.9295
2771.2070,97.948
2772.1711,97.9639
2773.1355,97.9708
2774.0996,97.9665
2775.0640,97.9516
2776.0281,97.9277
2776.9924,97.8963
2777.9565,97.8599
2778.9209,97.8239
2779.8850,97.7962
2780.8494,97.7842
2781.8135,97.7906
2782.7778,97.8101
2783.7419,97.8319
2784.7063,97.8439
2785.6704,97.8394
2786.6348,97.8202
2787.5989,97.7949
2788.5632,97.7744
2789.5273,97.7655
2790.4917,97.7676
2791.4558,97.7731
2792.4202,97.7716
2793.3843,97.7557
2794.3486,97.7245
2795.3127,97.6837
2796.2771,97.6427
2797.2412,97.61
2798.2056,97.59
2799.1697,97.583
2800.1340,97.5862
2801.0981,97.5952
2802.0625,97.6045
2803.0266,97.6076
2803.9910,97.5987
2804.9551,97.5753
2805.9194,97.5414
2806.8835,97.5068
2807.8479,97.4825
2808.8120,97.4755
2809.7764,97.4851
2810.7405,97.5052
2811.7048,97.5292
2812.6689,97.5544
2813.6333,97.581
2814.5974,97.6083
2815.5618,97.6305
2816.5259,97.6374
2817.4902,97.6195
2818.4543,97.5747
2819.4187,97.5106
2820.3828,97.4414
2821.3472,97.3819
2822.3113,97.341
2823.2756,97.3204
2824.2397,97.3151
2825.2041,97.3176
2826.1682,97.3202
2827.1326,97.318
2828.0967,97.3092
2829.0610,97.2946
2830.0251,97.2754
2830.9895,97.2504
2831.9536,97.216
2832.9180,97.1684
2833.8821,97.1081
2834.8464,97.0422
2835.8105,96.9821
2836.7749,96.9366
2837.7390,96.9067
2838.7034,96.8843
2839.6675,96.8585
2840.6318,96.8231
2841.5959,96.7803
2842.5603,96.7374
2843.5244,96.6984
2844.4888,96.6586
2845.4529,96.606
2846.4172,96.5304
2847.3813,96.4316
2848.3457,96.3227
2849.3098,96.2228
2850.2742,96.1466
2851.2383,96.0957
2852.2026,96.0599
2853.1667,96.0246
2854.1311,95.9804
2855.0952,95.9283
2856.0596,95.8772
2857.0237,95.8379
2857.9880,95.8162
2858.9521,95.8101
2859.9165,95.8114
2860.8806,95.8096
2861.8450,95.7957
2862.8091,95.7649
2863.7734,95.7175
2864.7375,95.6586
2865.7019,95.5961
2866.6660,95.538
2867.6304,95.4888
2868.5945,95.4467
2869.5588,95.4049
2870.5229,95.3558
2871.4873,95.2976
2872.4514,95.2383
2873.4158,95.1945
2874.3799,95.1836
2875.3442,95.2151
2876.3083,95.284
2877.2727,95.3727
2878.2368,95.4589
2879.2012,95.5253
2880.1653,95.5653
2881.1296,95.5829
2882.0938,95.5873
2883.0581,95.587
2884.0222,95.5873
2884.9866,95.5909
2885.9507,95.6001
2886.9150,95.6167
2887.8792,95.6413
2888.8435,95.6711
2889.8076,95.6992
2890.7720,95.718
2891.7361,95.7215
2892.7004,95.7089
2893.6646,95.6848
2894.6289,95.6572
2895.5930,95.6343
2896.5574,95.6211
2897.5215,95.6176
2898.4858,95.6184
2899.4500,95.6149
2900.4143,95.5986
2901.3784,95.5654
2902.3428,95.5167
2903.3069,95.4593
2904.2712,95.4016
2905.2354,95.3505
2906.1997,95.31
2907.1638,95.2816
2908.1282,95.2662
2909.0923,95.2635
2910.0566,95.2707
2911.0208,95.2806
2911.9851,95.2821
2912.9492,95.2642
2913.9136,95.2216
2914.8777,95.1582
2915.8420,95.0856
2916.8062,95.0173
2917.7705,94.9623
2918.7346,94.9206
2919.6990,94.8844
2920.6631,94.8428
2921.6274,94.7879
2922.5916,94.7189
2923.5559,94.6428
2924.5200,94.571
2925.4844,94.5143
2926.4485,94.4782
2927.4128,94.4603
2928.3770,94.452
2929.3413,94.4432
2930.3054,94.4284
2931.2698,94.4095
2932.2339,94.3942
2933.1982,94.3917
2934.1624,94.4066
2935.1267,94.4367
2936.0908,94.4745
2937.0552,94.512
2938.0193,94.5437
2938.9836,94.5694
2939.9478,94.5919
2940.9121,94.6154
2941.8762,94.6428
2942.8406,94.6758
2943.8047,94.714
2944.7690,94.7566
2945.7332,94.8033
2946.6975,94.8553
2947.6616,94.9158
2948.6260,94.9894
2949.5901,95.0785
2950.5544,95.1795
2951.5186,95.2809
2952.4829,95.3643
2953.4470,95.4127
2954.4114,95.4184
2955.3755,95.3898
2956.3398,95.3494
2957.3040,95.325
2958.2683,95.337
2959.2324,95.3899
2960.1968,95.4717
2961.1609,95.5618
2962.1252,95.6427
2963.0894,95.7089
2964.0537,95.7673
2965.0178,95.8312
2965.9822,95.9098
2966.9463,96.0005
2967.9106,96.089
2968.8748,96.1557
2969.8391,96.186
2970.8032,96.1776
2971.7676,96.1423
2972.7317,96.0992
2973.6960,96.0655
2974.6602,96.0498
2975.6245,96.0507
2976.5886,96.062
2977.5530,96.0787
2978.5171,96.1006
2979.4814,96.1305
2980.4456,96.1706
2981.4099,96.2202
2982.3740,96.2773
2983.3384,96.3414
2984.3025,96.4146
2985.2668,96.4976
2986.2310,96.5852
2987.1953,96.6651
2988.1594,96.7237
2989.1238,96.755
2990.0879,96.7681
2991.0522,96.7839
2992.0164,96.824
2992.9807,96.8978
2993.9448,96.9962
2994.9092,97.0963
2995.8733,97.1749
2996.8376,97.2209
2997.8018,97.2403
2998.7661,97.2508
2999.7302,97.272
3000.6946,97.3155
3001.6587,97.3812
3002.6230,97.458
3003.5872,97.5294
3004.5515,97.5808
3005.5156,97.6059
3006.4800,97.6106
3007.4441,97.6114
3008.4084,97.6278
3009.3726,97.6735
3010.3369,97.7487
3011.3010,97.8393
3012.2654,97.9242
3013.2295,97.9865
3014.1938,98.0211
3015.1580,98.0348
3016.1223,98.0389
3017.0864,98.0413
3018.0508,98.0438
3019.0149,98.0442
3019.9792,98.0418
3020.9434,98.0396
3021.9077,98.0428
3022.8718,98.0532
3023.8362,98.0668
3024.8003,98.0751
3025.7646,98.0707
3026.7288,98.0519
3027.6931,98.0249
3028.6572,98.0002
3029.6216,97.9881
3030.5857,97.9943
3031.5500,98.0182
3032.5142,98.0537
3033.4785,98.0921
3034.4426,98.1255
3035.4070,98.1488
3036.3711,98.1605
3037.3354,98.1625
3038.2996,98.1577
3039.2639,98.1495
3040.2280,98.1405
3041.1924,98.1332
3042.1565,98.1295
3043.1208,98.1304
3044.0850,98.1334
3045.0493,98.1324
3046.0134,98.1198
3046.9778,98.0917
3047.9419,98.0522
3048.9063,98.0127
3049.8704,97.9863
3050.8347,97.9796
3051.7988,97.989
3052.7632,98.0031
3053.7273,98.0105
3054.6917,98.0063
3055.6558,97.9941
3056.6201,97.9814
3057.5842,97.973
3058.5486,97.9675
3059.5127,97.9594
3060.4771,97.9439
3061.4412,97.9207
3062.4055,97.8947
3063.3696,97.8732
3064.3340,97.8624
3065.2981,97.8658
3066.2625,97.8837
3067.2266,97.9143
3068.1909,97.9538
3069.1550,97.9964
3070.1194,98.0343
3071.0835,98.0598
3072.0479,98.0668
3073.0120,98.0533
3073.9763,98.0222
3074.9404,97.9805
3075.9048,97.9372
3076.8689,97.9013
3077.8333,97.8801
3078.7974,97.8775
3079.7617,97.8933
3080.7258,97.9223
3081.6902,97.9552
3082.6543,97.9822
3083.6187,97.9961
3084.5828,97.996
3085.5471,97.9866
3086.5112,97.9751
3087.4756,97.9665
3088.4397,97.9604
3089.4041,97.9527
3090.3682,97.9398
3091.3325,97.9234
3092.2966,97.9098
3093.2610,97.9046
3094.2251,97.9072
3095.1895,97.909
3096.1536,97.8985
3097.1179,97.8706
3098.0820,97.8305
3099.0464,97.792
3100.0105,97.769
3100.9749,97.7678
3101.9390,97.7855
3102.9033,97.8138
3103.8674,97.8442
3104.8318,97.8702
3105.7959,97.886
3106.7603,97.8845
3107.7244,97.8603
3108.6887,97.814
3109.6528,97.7559
3110.6172,97.7025
3111.5813,97.6688
3112.5457,97.6612
3113.5098,97.6762
3114.4741,97.7042
3115.4382,97.736
3116.4026,97.7661
3117.3667,97.7914
3118.3311,97.8091
3119.2952,97.8161
3120.2595,97.8118
3121.2236,97.8004
3122.1880,97.7896
3123.1521,97.786
3124.1165,97.7905
3125.0806,97.7982
3126.0449,97.8036
3127.0090,97.8055
3127.9734,97.8083
3128.9375,97.8181
3129.9019,97.8362
3130.8660,97.857
3131.8303,97.8707
3132.7944,97.8698
3133.7588,97.8534
3134.7229,97.8266
3135.6873,97.7956
3136.6514,97.7629
3137.6157,97.7266
3138.5798,97.6845
3139.5442,97.6386
3140.5083,97.5966
3141.4727,97.569
3142.4368,97.5636
3143.4011,97.5815
3144.3652,97.6155
3145.3296,97.6527
3146.2937,97.6796
3147.2581,97.687
3148.2222,97.6736
3149.1865,97.6457
3150.1506,97.6145
3151.1150,97.5906
3152.0791,97.5792
3153.0435,97.5792
3154.0076,97.5861
3154.9719,97.5967
3155.9360,97.6107
3156.9004,97.6291
3157.8645,97.6494
3158.8289,97.6629
3159.7930,97.6589
3160.7573,97.6326
3161.7214,97.592
3162.6858,97.556
3163.6499,97.5442
3164.6143,97.5636
3165.5784,97.6025
3166.5427,97.6358
3167.5068,97.6397
3168.4712,97.6054
3169.4353,97.5432
3170.3997,97.4762
3171.3638,97.4274
3172.3281,97.4104
3173.2922,97.4266
3174.2566,97.4688
3175.2207,97.5241
3176.1851,97.5762
3177.1492,97.6078
3178.1135,97.6059
3179.0776,97.5686
3180.0420,97.5081
3181.0061,97.4471
3181.9705,97.4074
3182.9346,97.3992
3183.8989,97.4155
3184.8630,97.4369
3185.8274,97.4431
3186.7915,97.4238
3187.7559,97.384
3188.7200,97.3386
3189.6843,97.3045
3190.6484,97.2922
3191.6128,97.3031
3192.5769,97.3302
3193.5413,97.3622
3194.5054,97.3877
3195.4697,97.399
3196.4338,97.3947
3197.3982,97.3791
3198.3623,97.3596
3199.3267,97.3417
3200.2908,97.3266
3201.2551,97.3107
3202.2192,97.2893
3203.1836,97.26
3204.1477,97.2241
3205.1121,97.1858
3206.0762,97.1495
3207.0405,97.119
3208.0046,97.097
3208.9690,97.0861
3209.9331,97.087
3210.8975,97.0968
3211.8616,97.1083
3212.8259,97.1121
3213.7900,97.1021
3214.7544,97.0788
3215.7185,97.0507
3216.6829,97.0292
3217.6470,97.0232
3218.6113,97.0346
3219.5754,97.0587
3220.5398,97.0878
3221.5039,97.1152
3222.4683,97.1369
3223.4324,97.1507
3224.3967,97.1539
3225.3608,97.1433
3226.3252,97.1177
3227.2893,97.0812
3228.2537,97.0439
3229.2178,97.0184
3230.1821,97.0127
3231.1462,97.0245
3232.1106,97.0422
3233.0747,97.0516
3234.0391,97.0452
3235.0032,97.027
3235.9675,97.009
3236.9316,97.0024
3237.8960,97.0087
3238.8601,97.0195
3239.8245,97.0236
3240.7886,97.0152
3241.7529,96.998
3242.7170,96.9801
3243.6814,96.966
3244.6455,96.9516
3245.6099,96.9286
3246.5740,96.8916
3247.5383,96.8451
3248.5024,96.8007
3249.4668,96.771
3250.4309,96.7624
3251.3953,96.7732
3252.3594,96.7965
3253.3237,96.8242
3254.2878,96.8493
3255.2522,96.8664
3256.2163,96.8713
3257.1807,96.862
3258.1448,96.8408
3259.1091,96.8143
3260.0732,96.7916
3261.0376,96.7806
3262.0017,96.7843
3262.9661,96.7994
3263.9302,96.8165
3264.8945,96.8222
3265.8586,96.8034
3266.8230,96.754
3267.7871,96.6804
3268.7515,96.6034
3269.7156,96.5508
3270.6799,96.5451
3271.6440,96.5905
3272.6084,96.6685
3273.5725,96.7452
3274.5369,96.788
3275.5010,96.7814
3276.4653,96.7312
3277.4294,96.6564
3278.3938,96.577
3279.3579,96.5051
3280.3223,96.4451
3281.2864,96.3985
3282.2507,96.3683
3283.2148,96.3594
3284.1792,96.3752
3285.1433,96.4142
3286.1077,96.4693
3287.0718,96.5286
3288.0361,96.5789
3289.0002,96.6083
3289.9646,96.6099
3290.9287,96.5836
3291.8931,96.5378
3292.8572,96.4856
3293.8215,96.4404
3294.7856,96.4099
3295.7500,96.3943
3296.7141,96.388
3297.6785,96.3846
3298.6426,96.3814
3299.6069,96.3801
3300.5710,96.3841
3301.5354,96.3951
3302.4995,96.4114
3303.4639,96.4286
3304.4280,96.4429
3305.3923,96.4529
3306.3564,96.4599
3307.3208,96.4665
3308.2849,96.4753
3309.2493,96.4875
3310.2134,96.5022
3311.1777,96.5154
3312.1418,96.5192
3313.1062,96.5039
3314.0703,96.4623
3315.0347,96.3956
3315.9988,96.3157
3316.9631,96.2425
3317.9272,96.1956
3318.8916,96.1851
3319.8557,96.2063
3320.8201,96.2432
3321.7842,96.2771
3322.7485,96.2968
3323.7126,96.3029
3324.6770,96.3055
3325.6411,96.3154
3326.6055,96.3353
3327.5696,96.3571
3328.5339,96.3663
3329.4980,96.3509
3330.4624,96.3093
3331.4265,96.2525
3332.3909,96.1983
3333.3550,96.1622
3334.3193,96.1492
3335.2834,96.152
3336.2478,96.1567
3337.2119,96.153
3338.1763,96.1409
3339.1404,96.1302
3340.1047,96.1327
3341.0688,96.1541
3342.0332,96.1905
3342.9973,96.2314
3343.9617,96.2663
3344.9258,96.289
3345.8901,96.2976
3346.8542,96.2895
3347.8186,96.2594
3348.7827,96.2016
3349.7471,96.1172
3350.7112,96.0196
3351.6755,95.9328
3352.6396,95.8814
3353.6040,95.8791
3354.5681,95.9204
3355.5325,95.9837
3356.4966,96.0429
3357.4609,96.0806
3358.4250,96.0946
3359.3894,96.0935
3360.3535,96.0876
3361.3179,96.0803
3362.2820,96.0684
3363.2463,96.0474
3364.2104,96.0192
3365.1748,95.9935
3366.1389,95.9835
3367.1033,95.9975
3368.0674,96.0331
3369.0317,96.0781
3369.9958,96.116
3370.9602,96.1328
3371.9243,96.1212
3372.8887,96.0828
3373.8528,96.0263
3374.8171,95.9661
3375.7813,95.918
3376.7456,95.894
3377.7097,95.8975
3378.6741,95.9211
3379.6382,95.9503
3380.6025,95.969
3381.5667,95.9668
3382.5310,95.9416
3383.4951,95.8985
3384.4595,95.847
3385.4236,95.7971
3386.3879,95.7575
3387.3521,95.7344
3388.3164,95.7301
3389.2805,95.7416
3390.2449,95.7606
3391.2090,95.7768
3392.1733,95.7842
3393.1375,95.7851
3394.1018,95.7893
3395.0659,95.8072
3396.0303,95.8431
3396.9944,95.8917
3397.9587,95.9414
3398.9229,95.9795
3399.8872,95.997
3400.8513,95.9906
3401.8157,95.9616
3402.7798,95.9154
3403.7441,95.8603
3404.7083,95.8068
3405.6726,95.7631
3406.6367,95.7328
3407.6011,95.7135
3408.5652,95.7013
3409.5295,95.696
3410.4937,95.704
3411.4580,95.7351
3412.4221,95.795
3413.3865,95.8777
3414.3506,95.9657
3415.3149,96.0362
3416.2791,96.0707
3417.2434,96.0622
3418.2075,96.0172
3419.1719,95.9537
3420.1360,95.8945
3421.1003,95.8584
3422.0645,95.8531
3423.0288,95.8737
3423.9929,95.909
3424.9573,95.9495
3425.9214,95.992
3426.8857,96.0385
3427.8499,96.0888
3428.8142,96.1349
3429.7783,96.1599
3430.7427,96.147
3431.7068,96.091
3432.6711,96.0042
3433.6353,95.9106
3434.5996,95.8325
3435.5637,95.7786
3436.5281,95.7437
3437.4922,95.7184
3438.4565,95.7009
3439.4207,95.6996
3440.3850,95.7248
3441.3491,95.7752
3442.3135,95.8318
3443.2776,95.8656
3444.2419,95.8544
3445.2061,95.7979
3446.1704,95.7204
3447.1345,95.6581
3448.0989,95.6369
3449.0630,95.6599
3450.0273,95.7108
3450.9915,95.7678
3451.9558,95.8146
3452.9199,95.8444
3453.8843,95.8591
3454.8484,95.8669
3455.8127,95.8785
3456.7769,95.9022
3457.7412,95.9392
3458.7053,95.9804
3459.6697,96.0095
3460.6338,96.0116
3461.5981,95.9846
3462.5623,95.9444
3463.5266,95.9167
3464.4907,95.9208
3465.4551,95.9564
3466.4192,96.0032
3467.3835,96.0349
3468.3477,96.0368
3469.3120,96.0159
3470.2761,95.9952
3471.2405,95.9966
3472.2046,96.0255
3473.1689,96.0672
3474.1331,96.0953
3475.0974,96.0886
3476.0615,96.0427
3477.0259,95.9718
3477.9900,95.9
3478.9543,95.8524
3479.9185,95.8471
3480.8828,95.8892
3481.8469,95.9675
3482.8113,96.0587
3483.7754,96.1376
3484.7397,96.1867
3485.7039,96.2005
3486.6682,96.184
3487.6323,96.1483
3488.5967,96.1057
3489.5608,96.0663
3490.5251,96.0373
3491.4893,96.0232
3492.4536,96.0251
3493.4177,96.0394
3494.3821,96.0566
3495.3462,96.065
3496.3105,96.0578
3497.2747,96.0381
3498.2390,96.0175
3499.2031,96.0079
3500.1675,96.0157
3501.1316,96.0374
3502.0959,96.0625
3503.0601,96.0805
3504.0244,96.0876
3504.9885,96.0881
3505.9529,96.0891
3506.9170,96.0951
3507.8813,96.1073
3508.8455,96.1235
3509.8098,96.14
3510.7739,96.1533
3511.7383,96.1628
3512.7024,96.1727
3513.6667,96.1905
3514.6309,96.2227
3515.5952,96.2686
3516.5593,96.3157
3517.5237,96.343
3518.4878,96.3313
3519.4521,96.2757
3520.4163,96.1936
3521.3806,96.12
3522.3447,96.0926
3523.3091,96.1295
3524.2732,96.2166
3525.2375,96.3142
3526.2017,96.3802
3527.1660,96.3925
3528.1301,96.3597
3529.0945,96.3118
3530.0586,96.2804
3531.0229,96.282
3531.9871,96.3155
3532.9514,96.3685
3533.9155,96.4263
3534.8799,96.4756
3535.8440,96.5077
3536.8083,96.5192
3537.7725,96.5124
3538.7368,96.4938
3539.7009,96.4725
3540.6653,96.4582
3541.6294,96.4597
3542.5938,96.4836
3543.5579,96.5306
3544.5222,96.5931
3545.4863,96.6561
3546.4507,96.7055
3547.4148,96.7346
3548.3792,96.7447
3549.3433,96.7399
3550.3076,96.7243
3551.2717,96.7028
3552.2361,96.6813
3553.2002,96.6657
3554.1646,96.659
3555.1287,96.6619
3556.0930,96.6754
3557.0571,96.7026
3558.0215,96.7474
3558.9856,96.8089
3559.9500,96.8771
3560.9141,96.9343
3561.8784,96.9637
3562.8425,96.9572
3563.8069,96.9185
3564.7710,96.8633
3565.7354,96.8161
3566.6995,96.7966
3567.6638,96.8042
3568.6279,96.8253
3569.5923,96.8541
3570.5564,96.8958
3571.5208,96.9569
3572.4849,97.0345
3573.4492,97.1123
3574.4133,97.1647
3575.3777,97.1725
3576.3418,97.1394
3577.3062,97.094
3578.2703,97.0741
3579.2346,97.1044
3580.1987,97.182
3581.1631,97.2796
3582.1272,97.3635
3583.0916,97.4105
3584.0557,97.4144
3585.0200,97.3858
3585.9841,97.3482
3586.9485,97.3276
3587.9126,97.3334
3588.8770,97.3544
3589.8411,97.3771
3590.8054,97.3963
3591.7695,97.4126
3592.7339,97.4245
3593.6980,97.4275
3594.6624,97.4187
3595.6265,97.4055
3596.5908,97.4071
3597.5549,97.4427
3598.5193,97.5175
3599.4834,97.6127
3600.4478,97.6908
3601.4119,97.7198
3602.3762,97.6961
3603.3403,97.6445
3604.3047,97.6036
3605.2688,97.6097
3606.2332,97.682
3607.1973,97.8078
3608.1616,97.9422
3609.1257,98.0387
3610.0901,98.0834
3611.0542,98.0986
3612.0186,98.1179
3612.9827,98.1621
3613.9470,98.2288
3614.9111,98.298
3615.8755,98.3441
3616.8396,98.3472
3617.8040,98.2991
3618.7681,98.2134
3619.7324,98.1247
3620.6965,98.0681
3621.6609,98.0563
3622.6250,98.0816
3623.5894,98.1298
3624.5535,98.1853
3625.5178,98.2303
3626.4819,98.242
3627.4463,98.2017
3628.4104,98.1241
3629.3748,98.0623
3630.3389,98.0528
3631.3032,98.087
3632.2673,98.1417
3633.2317,98.2011
3634.1958,98.2602
3635.1602,98.3206
3636.1243,98.3841
3637.0886,98.4469
3638.0527,98.498
3639.0171,98.5242
3639.9812,98.5185
3640.9456,98.4883
3641.9097,98.4533
3642.8740,98.4354
3643.8381,98.4466
3644.8025,98.4837
3645.7666,98.5269
3646.7310,98.5405
3647.6951,98.4879
3648.6594,98.3874
3649.6235,98.3239
3650.5879,98.3321
3651.5520,98.3779
3652.5164,98.4275
3653.4805,98.4691
3654.4448,98.5052
3655.4089,98.545
3656.3733,98.5951
3657.3374,98.6518
3658.3018,98.7031
3659.2659,98.7379
3660.2302,98.7513
3661.1943,98.7457
3662.1587,98.7309
3663.1228,98.7229
3664.0872,98.7394
3665.0513,98.794
3666.0156,98.8917
3666.9797,99.023
3667.9441,99.1532
3668.9082,99.2252
3669.8726,99.2031
3670.8367,99.1157
3671.8010,99.0224
3672.7651,98.9566
3673.7295,98.9151
3674.6936,98.88
3675.6580,98.8493
3676.6221,98.85
3677.5864,98.9035
3678.5505,98.9991
3679.5149,99.1056
3680.4790,99.1903
3681.4434,99.2303
3682.4075,99.222
3683.3718,99.1809
3684.3359,99.1326
3685.3003,99.1002
3686.2644,99.096
3687.2288,99.1171
3688.1929,99.1486
3689.1572,99.1767
3690.1213,99.2059
3691.0857,99.2481
3692.0498,99.3001
3693.0142,99.3459
3693.9783,99.3685
3694.9426,99.3598
3695.9067,99.3257
3696.8711,99.284
3697.8352,99.2573
3698.7996,99.2618
3699.7637,99.2994
3700.7280,99.3557
3701.6921,99.4087
3702.6565,99.4461
3703.6206,99.4728
3704.5850,99.5014
3705.5491,99.5394
3706.5134,99.5844
3707.4775,99.6249
3708.4419,99.6437
3709.4060,99.6251
3710.3704,99.5728
3711.3345,99.5175
3712.2988,99.4866
3713.2629,99.4782
3714.2273,99.4767
3715.1914,99.4711
3716.1558,99.4586
3717.1199,99.4424
3718.0842,99.429
3719.0483,99.4258
3720.0127,99.4368
3720.9768,99.4594
3721.9412,99.4844
3722.9053,99.4998
3723.8696,99.4977
3724.8337,99.4788
3725.7981,99.4525
3726.7622,99.4299
3727.7266,99.4166
3728.6907,99.412
3729.6550,99.4117
3730.6191,99.4109
3731.5835,99.4077
3732.5476,99.4056
3733.5120,99.4126
3734.4761,99.43
3735.4404,99.4421
3736.4045,99.431
3737.3689,99.3965
3738.3330,99.3516
3739.2974,99.3113
3740.2615,99.2877
3741.2258,99.2901
3742.1899,99.3223
3743.1543,99.3758
3744.1184,99.427
3745.0828,99.4539
3746.0469,99.4589
3747.0112,99.4622
3747.9753,99.4829
3748.9397,99.5315
3749.9038,99.6014
3750.8682,99.6649
3751.8323,99.6964
3752.7966,99.6968
3753.7607,99.6795
3754.7251,99.6534
3755.6892,99.6236
3756.6536,99.5956
3757.6177,99.576
3758.5820,99.5663
3759.5461,99.5583
3760.5105,99.5391
3761.4746,99.5029
3762.4390,99.4552
3763.4031,99.4093
3764.3674,99.3788
3765.3315,99.3684
3766.2959,99.3678
3767.2600,99.3573
3768.2244,99.325
3769.1885,99.2829
3770.1528,99.2625
3771.1169,99.2896
3772.0813,99.3646
3773.0454,99.4672
3774.0098,99.5728
3774.9739,99.662
3775.9382,99.7221
3776.9023,99.7467
3777.8667,99.737
3778.8308,99.7043
3779.7952,99.6644
3780.7593,99.6288
3781.7236,99.6015
3782.6877,99.5847
3783.6521,99.5818
3784.6162,99.5954
3785.5806,99.622
3786.5447,99.6486
3787.5090,99.6577
3788.4731,99.6377
3789.4375,99.5888
3790.4016,99.5234
3791.3660,99.4601
3792.3301,99.4172
3793.2944,99.4079
3794.2585,99.4372
3795.2229,99.5019
3796.1870,99.5934
3797.1514,99.7008
3798.1155,99.8115
3799.0798,99.9041
3800.0439,99.9448
3801.0083,99.9045
3801.9724,99.7905
3802.9368,99.6472
3803.9009,99.52
3804.8652,99.4345
3805.8293,99.3974
3806.7937,99.4009
3807.7578,99.4251
3808.7222,99.4489
3809.6863,99.4636
3810.6506,99.4741
3811.6147,99.4928
3812.5791,99.5348
3813.5432,99.6111
3814.5076,99.7158
3815.4717,99.8176
3816.4360,99.8738
3817.4001,99.8614
3818.3645,99.7902
3819.3286,99.6939
3820.2930,99.6158
3821.2571,99.5843
3822.2214,99.5937
3823.1855,99.6189
3824.1499,99.6406
3825.1140,99.652
3826.0784,99.6532
3827.0425,99.6457
3828.0068,99.6298
3828.9709,99.6063
3829.9353,99.5783
3830.8994,99.5523
3831.8638,99.5367
3832.8279,99.5389
3833.7922,99.5633
3834.7563,99.6123
3835.7207,99.687
3836.6848,99.7835
3837.6492,99.8835
3838.6133,99.9534
3839.5776,99.9648
3840.5417,99.9151
3841.5061,99.8254
3842.4702,99.7258
3843.4346,99.6425
3844.3987,99.5905
3845.3630,99.5711
3846.3271,99.5747
3847.2915,99.5882
3848.2556,99.6005
3849.2200,99.6044
3850.1841,99.5967
3851.1484,99.58
3852.1125,99.563
3853.0769,99.5536
3854.0410,99.5449
3855.0054,99.5264
3855.9695,99.5001
3856.9338,99.4747
3857.8979,99.4578
3858.8623,99.4536
3859.8264,99.4623
3860.7908,99.4815
3861.7549,99.5086
3862.7192,99.5434
3863.6833,99.5878
3864.6477,99.6385
3865.6118,99.6824
3866.5762,99.7004
3867.5403,99.6765
3868.5046,99.6098
3869.4688,99.5252
3870.4331,99.466
3871.3972,99.4623
3872.3616,99.5039
3873.3257,99.5554
3874.2900,99.5898
3875.2542,99.6014
3876.2185,99.5976
3877.1826,99.5861
3878.1470,99.5677
3879.1111,99.5378
3880.0754,99.4948
3881.0396,99.4507
3882.0039,99.4276
3882.9680,99.4425
3883.9324,99.493
3884.8965,99.5563
3885.8608,99.6039
3886.8250,99.6208
3887.7893,99.6099
3888.7534,99.5847
3889.7178,99.56
3890.6819,99.5465
3891.6462,99.5459
3892.6104,99.5487
3893.5747,99.5405
3894.5388,99.5107
3895.5032,99.455
3896.4673,99.376
3897.4316,99.2856
3898.3958,99.2076
3899.3601,99.1705
3900.3242,99.1892
3901.2886,99.2514
3902.2527,99.3259
3903.2170,99.3843
3904.1812,99.4168
3905.1455,99.4291
3906.1096,99.4318
3907.0740,99.4332
3908.0381,99.4391
3909.0024,99.454
3909.9666,99.4785
3910.9309,99.5072
3911.8950,99.5285
3912.8594,99.5294
3913.8235,99.504
3914.7878,99.4604
3915.7520,99.4208
3916.7163,99.4115
3917.6804,99.4427
3918.6448,99.499
3919.6089,99.5507
3920.5732,99.5745
3921.5374,99.5628
3922.5017,99.5226
3923.4658,99.4707
3924.4302,99.4255
3925.3943,99.3969
3926.3586,99.3842
3927.3228,99.3816
3928.2871,99.3869
3929.2512,99.4052
3930.2156,99.446
3931.1797,99.5134
3932.1440,99.5958
3933.1082,99.6681
3934.0725,99.7054
3935.0366,99.6952
3936.0010,99.6398
3936.9651,99.5521
3937.9294,99.4504
3938.8936,99.3542
3939.8579,99.2806
3940.8220,99.2421
3941.7864,99.2443
3942.7505,99.2824
3943.7148,99.3416
3944.6790,99.4014
3945.6433,99.4421
3946.6074,99.4499
3947.5718,99.424
3948.5359,99.3807
3949.5002,99.3498
3950.4644,99.3566
3951.4287,99.405
3952.3928,99.4747
3953.3572,99.533
3954.3213,99.5519
3955.2856,99.5232
3956.2500,99.4645
3957.2141,99.4112
3958.1785,99.3958
3959.1426,99.4293
3960.1069,99.4939
3961.0710,99.5542
3962.0354,99.5786
3962.9995,99.5576
3963.9639,99.5064
3964.9280,99.4502
3965.8923,99.4081
3966.8564,99.3848
3967.8208,99.3741
3968.7849,99.3688
3969.7493,99.3676
3970.7134,99.3738
3971.6777,99.3867
3972.6418,99.395
3973.6062,99.38
3974.5703,99.3282
3975.5347,99.245
3976.4988,99.1561
3977.4631,99.0947
3978.4272,99.0826
3979.3916,99.1189
3980.3557,99.1802
3981.3201,99.2329
3982.2842,99.251
3983.2485,99.2284
3984.2126,99.1796
3985.1770,99.1295
3986.1411,99.1014
3987.1055,99.1085
3988.0696,99.1524
3989.0339,99.2242
3989.9980,99.3079
3990.9624,99.384
3991.9265,99.4343
3992.8909,99.4467
3993.8550,99.4195
3994.8193,99.363
3995.7834,99.2968
3996.7478,99.2427
3997.7119,99.2157
3998.6763,99.2173
3999.6404,99.2361
4000.6047,99.2539
4001.5688,99.2566
4002.5332,99.2425
4003.4973,99.2245
4004.4617,99.2226
4005.4258,99.2531
4006.3901,99.3186
4007.3542,99.4057
4008.3186,99.4912
4009.2827,99.5519
4010.2471,99.5744
4011.2112,99.5576
4012.1755,99.5103
4013.1396,99.4472
4014.1040,99.3844
4015.0681,99.336
4016.0325,99.3101
4016.9966,99.3059
4017.9609,99.3139
4018.9250,99.3215
4019.8894,99.3205
4020.8535,99.3127
4021.8179,99.3071
4022.7820,99.3129
4023.7463,99.3303
4024.7104,99.3485
4025.6748,99.3515
4026.6389,99.3296
4027.6033,99.2867
4028.5674,99.2389
4029.5317,99.204
4030.4958,99.1899
4031.4602,99.1902
4032.4243,99.1907
4033.3887,99.1813
4034.3528,99.1659
4035.3171,99.162
4036.2813,99.1879
4037.2456,99.2481
4038.2097,99.3255
4039.1741,99.3884
4040.1382,99.4081
4041.1025,99.3768
4042.0667,99.3134
4043.0310,99.2542
4043.9951,99.233
4044.9595,99.2617
4045.9236,99.3252
4046.8879,99.3916
4047.8521,99.4296
4048.8164,99.4232
4049.7805,99.3754
4050.7449,99.3038
4051.7090,99.2314
4052.6733,99.177
4053.6375,99.1483
4054.6018,99.141
4055.5659,99.1429
4056.5303,99.1414
4057.4944,99.1326
4058.4587,99.1241
4059.4229,99.1315
4060.3872,99.167
4061.3513,99.2288
4062.3157,99.2989
4063.2798,99.3525
4064.2441,99.3729
4065.2083,99.3623
4066.1726,99.3405
4067.1367,99.3306
4068.1011,99.3429
4069.0652,99.3677
4070.0295,99.3826
4070.9937,99.3691
4071.9580,99.3267
4072.9221,99.2746
4073.8865,99.2405
4074.8506,99.2435
4075.8149,99.2834
4076.7791,99.3427
4077.7434,99.3968
4078.7075,99.4277
4079.6719,99.4302
4080.6360,99.4103
4081.6003,99.378
4082.5645,99.3411
4083.5288,99.3039
4084.4929,99.2689
4085.4573,99.2386
4086.4214,99.2156
4087.3857,99.2018
4088.3499,99.1976
4089.3142,99.2043
4090.2783,99.2247
4091.2427,99.2619
4092.2068,99.314
4093.1711,99.3709
4094.1353,99.4165
4095.0996,99.4382
4096.0640,99.4361
4097.0278,99.4256
4097.9922,99.427
4098.9565,99.4503
4099.9209,99.4859
4100.8848,99.5104
4101.8491,99.5043
4102.8135,99.4674
4103.7778,99.4215
4104.7417,99.3943
4105.7061,99.3994
4106.6704,99.4266
4107.6348,99.4512
4108.5986,99.4549
4109.5630,99.4404
4110.5273,99.4291
4111.4917,99.4438
4112.4556,99.4904
4113.4199,99.5527
4114.3843,99.6018
4115.3486,99.6136
4116.3125,99.581
4117.2769,99.5135
4118.2412,99.4296
4119.2056,99.3468
4120.1694,99.2785
4121.1338,99.2338
4122.0981,99.2186
4123.0625,99.2334
4124.0264,99.2711
4124.9907,99.3171
4125.9551,99.3554
4126.9194,99.3768
4127.8833,99.385
4128.8477,99.3943
4129.8120,99.4206
4130.7764,99.4698
4131.7402,99.5318
4132.7046,99.5833
4133.6689,99.5994
4134.6333,99.5675
4135.5972,99.4939
4136.5615,99.4021
4137.5259,99.3217
4138.4902,99.2762
4139.4541,99.2751
4140.4185,99.3122
4141.3828,99.3701
4142.3472,99.4278
4143.3110,99.4687
4144.2754,99.4867
4145.2397,99.4881
4146.2041,99.4887
4147.1680,99.5049
4148.1323,99.5444
4149.0967,99.6002
4150.0610,99.6536
4151.0249,99.684
4151.9893,99.6803
4152.9536,99.6459
4153.9180,99.5949
4154.8818,99.5432
4155.8462,99.5009
4156.8105,99.4713
4157.7749,99.454
4158.7388,99.4494
4159.7031,99.4586
4160.6675,99.4809
4161.6318,99.5109
4162.5957,99.5399
4163.5601,99.5595
4164.5244,99.5653
4165.4888,99.5573
4166.4526,99.537
4167.4170,99.5039
4168.3813,99.4557
4169.3457,99.3919
4170.3096,99.3191
4171.2739,99.253
4172.2383,99.2147
4173.2026,99.2215
4174.1665,99.277
4175.1309,99.3668
4176.0952,99.4628
4177.0596,99.5343
4178.0234,99.5608
4178.9878,99.5405
4179.9521,99.4876
4180.9165,99.4244
4181.8804,99.3696
4182.8447,99.3331
4183.8091,99.3166
4184.7734,99.3184
4185.7373,99.3373
4186.7017,99.3718
4187.6660,99.4174
4188.6304,99.4645
4189.5942,99.5014
4190.5586,99.5204
4191.5229,99.5228
4192.4873,99.5189
4193.4512,99.5211
4194.4155,99.5351
4195.3799,99.5553
4196.3442,99.5677
4197.3081,99.5608
4198.2725,99.5346
4199.2368,99.5035
4200.2012,99.4877

##### Extended Information
[コメント情報]
試料名
コメント
測定者
所属
会社,北海道大学　大学院理学研究院

[データ情報]
作成日時,2025/08/18 18:55

データタイプ,等間隔データ
横軸,Wavenumber [cm-1]
縦軸,%T
スタート,499.473 cm-1
エンド,4200.2 cm-1
データ間隔,0.964233 cm-1
データ数,3839    

[測定情報]
機種名,FT/IR-4100typeA
シリアル番号,C207261016

付属品名,ATR PRO450-S
付属品シリアルNo.,A083961272
入射角,45 度

測定日時,2025/08/18 18:55

光源,標準光源
検出器,TGS
積算回数,64
分解,4 cm-1
ゼロフィリング,On
アポダイゼーション,Cosine
ゲイン,Auto (16)
アパーチャー,Auto (7.1 mm)
スキャンスピード,Auto (2 mm/sec)
フィルタ,Auto (30000 Hz)

