TITLE,
DATA TYPE,INFRARED SPECTRUM
ORIGIN,JASCO
OWNER,
DATE,25/08/18
TIME,18:32:39
SPECTROMETER/DATA SYSTEM,
LOCALE,1041
RESOLUTION,
DELTAX,0.964233
XUNITS,1/CM
YUNITS,TRANSMITTANCE
FIRSTX,  499.4729
LASTX, 4200.2010
NPOINTS,    3839
FIRSTY,   500.00000
MAXY,   500.00000
MINY,    -0.00000
XYDATA
499.4729,520.799
500.4372,-1.17549E-038
501.4014,-1.17549E-038
502.3656,-1.17549E-038
503.3299,-1.17549E-038
504.2941,145.522
505.2583,64.3598
506.2226,48.253
507.1868,49.896
508.1510,60.7677
509.1153,76.061
510.0795,88.0967
511.0437,89.8524
512.0080,83.807
512.9722,77.2813
513.9365,73.8384
514.9007,73.5075
515.8649,75.2461
516.8292,77.9684
517.7934,80.6759
518.7576,82.4423
519.7219,82.6651
520.6861,81.4404
521.6503,79.511
522.6146,77.7994
523.5788,77.0242
524.5430,77.5348
525.5073,79.2105
526.4715,81.4327
527.4357,83.3102
528.4000,84.1474
529.3642,83.8026
530.3284,82.6549
531.2927,81.3158
532.2569,80.3477
533.2211,80.1002
534.1854,80.6362
535.1496,81.7166
536.1138,82.8579
537.0781,83.5156
538.0423,83.372
539.0065,82.5484
539.9708,81.5373
540.9350,80.9008
541.8992,80.9695
542.8635,81.6944
543.8277,82.6681
544.7919,83.316
545.7562,83.2332
546.7204,82.4786
547.6846,81.551
548.6489,81.0222
549.6131,81.1351
550.5773,81.6627
551.5416,82.0846
552.5058,81.9565
553.4700,81.2229
554.4343,80.2399
555.3985,79.5146
556.3627,79.4013
557.3270,79.9533
558.2912,80.959
559.2554,82.0823
560.2197,83.0021
561.1839,83.4784
562.1481,83.3636
563.1124,82.633
564.0766,81.4496
565.0408,80.1761
566.0051,79.2659
566.9693,79.0756
567.9335,79.6966
568.8978,80.8865
569.8620,82.1535
570.8262,82.9914
571.7905,83.123
572.7547,82.5694
573.7189,81.5388
574.6832,80.2995
575.6474,79.137
576.6116,78.3452
577.5759,78.1655
578.5401,78.6688
579.5043,79.6574
580.4686,80.686
581.4328,81.2617
582.3970,81.1458
583.3613,80.5144
584.3255,79.8123
585.2897,79.4424
586.2540,79.5511
587.2182,80.0088
588.1824,80.5323
589.1467,80.8614
590.1109,80.8973
591.0751,80.7264
592.0394,80.5178
593.0036,80.3869
593.9678,80.3416
594.9321,80.3345
595.8963,80.3471
596.8605,80.4242
597.8248,80.6326
598.7890,80.982
599.7532,81.3762
600.7175,81.6513
601.6817,81.6901
602.6459,81.5237
603.6102,81.3293
604.5744,81.3166
605.5386,81.5891
606.5029,82.0746
607.4671,82.571
608.4313,82.8867
609.3956,82.9766
610.3598,82.9672
611.3240,83.0505
612.2883,83.3402
613.2525,83.798
614.2167,84.2619
615.1810,84.5468
616.1452,84.5587
617.1094,84.347
618.0737,84.0508
619.0379,83.7853
620.0021,83.5712
620.9664,83.3528
621.9306,83.0708
622.8948,82.7365
623.8591,82.4605
624.8233,82.4049
625.7875,82.6685
626.7518,83.1738
627.7160,83.6411
628.6802,83.6989
629.6445,83.0989
630.6087,81.9071
631.5729,80.5201
632.5372,79.4792
633.5014,79.2122
634.4656,79.8465
635.4299,81.1639
636.3941,82.7103
637.3583,84.0261
638.3226,84.8661
639.2868,85.2542
640.2510,85.3519
641.2153,85.2822
642.1795,85.0574
643.1437,84.6406
644.1080,84.0584
645.0722,83.4596
646.0364,83.0692
647.0007,83.0775
647.9649,83.5341
648.9291,84.3065
649.8934,85.1333
650.8576,85.7563
651.8218,86.0501
652.7861,86.0628
653.7503,85.9531
654.7145,85.8828
655.6788,85.9303
656.6430,86.0667
657.6072,86.2001
658.5715,86.2524
659.5357,86.2179
660.4999,86.1656
661.4642,86.1814
662.4284,86.2985
663.3926,86.4789
664.3569,86.6434
665.3211,86.7066
666.2853,86.6063
667.2496,86.3627
668.2138,86.1603
669.1780,86.2309
670.1423,86.5501
671.1065,86.9149
672.0707,87.2042
673.0350,87.4121
673.9992,87.5834
674.9634,87.7602
675.9277,87.9386
676.8919,88.0534
677.8561,88.0199
678.8204,87.8141
679.7846,87.521
680.7488,87.3117
681.7131,87.3571
682.6773,87.7309
683.6415,88.3577
684.6058,89.0383
685.5700,89.5389
686.5342,89.7005
687.4985,89.5154
688.4627,89.1256
689.4269,88.745
690.3912,88.5536
691.3554,88.6252
692.3196,88.9164
693.2839,89.3077
694.2481,89.6687
695.2123,89.9156
696.1766,90.0394
697.1408,90.0991
698.1050,90.1877
699.0693,90.3864
700.0335,90.7249
700.9977,91.1612
701.9620,91.5891
702.9262,91.8769
703.8904,91.93
704.8547,91.7465
705.8189,91.4314
706.7831,91.1536
707.7474,91.0701
708.7116,91.2622
709.6758,91.7134
710.6401,92.3265
711.6043,92.9637
712.5685,93.4922
713.5328,93.8254
714.4970,93.9474
715.4612,93.91
716.4255,93.8054
717.3897,93.7305
718.3539,93.7525
719.3182,93.8831
720.2824,94.0758
721.2466,94.2617
722.2109,94.4043
723.1751,94.5239
724.1393,94.6725
725.1036,94.8858
726.0678,95.1478
727.0320,95.3894
727.9963,95.5222
728.9605,95.4886
729.9247,95.2927
730.8890,94.9917
731.8532,94.6591
732.8174,94.3515
733.7817,94.0984
734.7459,93.9133
735.7101,93.8069
736.6744,93.7871
737.6386,93.8406
738.6028,93.9127
739.5671,93.908
740.5313,93.7275
741.4955,93.3299
742.4598,92.7767
743.4240,92.2223
744.3882,91.844
745.3525,91.7545
746.3167,91.9458
747.2809,92.2941
748.2452,92.6248
749.2094,92.8037
750.1736,92.8007
751.1379,92.6842
752.1021,92.5563
753.0663,92.4801
754.0306,92.4488
754.9948,92.4094
755.9590,92.3169
756.9233,92.1776
757.8875,92.0534
758.8517,92.0279
759.8160,92.162
760.7802,92.4649
761.7444,92.8948
762.7087,93.3829
763.6729,93.8652
764.6371,94.3022
765.6014,94.6784
766.5656,94.9842
767.5298,95.1978
768.4941,95.2812
769.4583,95.1967
770.4225,94.937
771.3868,94.5482
772.3510,94.1273
773.3152,93.7916
774.2795,93.6336
775.2437,93.6838
776.2079,93.8991
777.1722,94.1806
778.1364,94.4122
779.1006,94.5032
780.0649,94.4183
781.0291,94.1826
781.9933,93.8644
782.9576,93.5431
783.9218,93.2777
784.8860,93.0854
785.8503,92.9393
786.8145,92.7887
787.7787,92.5948
788.7430,92.361
789.7072,92.1395
790.6714,92.0036
791.6357,91.999
792.5999,92.1032
793.5641,92.2178
794.5284,92.2091
795.4926,91.9805
796.4568,91.5337
797.4211,90.9734
798.3853,90.449
799.3495,90.0746
800.3138,89.8775
801.2780,89.8037
802.2422,89.7683
803.2065,89.7136
804.1707,89.6342
805.1349,89.5569
806.0992,89.4983
807.0634,89.4397
808.0276,89.3432
808.9919,89.1934
809.9561,89.0307
810.9203,88.9437
811.8846,89.0249
812.8488,89.3201
813.8130,89.8031
814.7773,90.3878
815.7415,90.9682
816.7057,91.4609
817.6700,91.8278
818.6342,92.074
819.5984,92.2299
820.5627,92.3313
821.5269,92.408
822.4911,92.4806
823.4554,92.5656
824.4196,92.6809
825.3839,92.8482
826.3481,93.0856
827.3123,93.3925
828.2766,93.7345
829.2408,94.0434
830.2050,94.2417
831.1693,94.2826
832.1335,94.1826
833.0977,94.0201
834.0620,93.8974
835.0262,93.8899
835.9904,94.0134
836.9547,94.2266
837.9189,94.4613
838.8831,94.6608
839.8474,94.8011
840.8116,94.8878
841.7758,94.9371
842.7401,94.9627
843.7043,94.9771
844.6685,95.0022
845.6328,95.0739
846.5970,95.2313
847.5612,95.4942
848.5255,95.8437
849.4897,96.2218
850.4539,96.5518
851.4182,96.7742
852.3824,96.8766
853.3466,96.8984
854.3109,96.9063
855.2751,96.9536
856.2393,97.0481
857.2036,97.1492
858.1678,97.1946
859.1320,97.1421
860.0963,96.9988
861.0605,96.818
862.0247,96.6645
862.9890,96.5741
863.9532,96.531
864.9174,96.4756
865.8817,96.3379
866.8459,96.0767
867.8101,95.7019
868.7744,95.2707
869.7386,94.8612
870.7028,94.5401
871.6671,94.34
872.6313,94.2538
873.5955,94.2471
874.5598,94.2767
875.5240,94.304
876.4882,94.2925
877.4525,94.1967
878.4167,93.9602
879.3809,93.5393
880.3452,92.945
881.3094,92.27
882.2736,91.668
883.2379,91.2889
884.2021,91.2053
885.1663,91.3764
886.1306,91.6712
887.0948,91.9423
888.0590,92.1055
889.0233,92.1718
889.9875,92.2149
890.9517,92.3053
891.9160,92.4658
892.8802,92.673
893.8444,92.8895
894.8087,93.0942
895.7729,93.2885
896.7371,93.4816
897.7014,93.6776
898.6656,93.8759
899.6298,94.0786
900.5941,94.2909
901.5583,94.5094
902.5225,94.7102
903.4868,94.8547
904.4510,94.9134
905.4152,94.8913
906.3795,94.8308
907.3437,94.786
908.3079,94.787
909.2722,94.8208
910.2364,94.8434
911.2006,94.8151
912.1649,94.7323
913.1291,94.6331
914.0933,94.5739
915.0576,94.5938
916.0218,94.6903
916.9860,94.8192
917.9503,94.9178
918.9145,94.937
919.8787,94.866
920.8430,94.735
921.8072,94.5965
922.7714,94.4981
923.7357,94.4605
924.6999,94.4723
925.6641,94.5002
926.6284,94.5063
927.5926,94.4629
928.5568,94.3592
929.5211,94.199
930.4853,93.9956
931.4495,93.7674
932.4138,93.5348
933.3780,93.3167
934.3422,93.1249
935.3065,92.9576
936.2707,92.799
937.2349,92.6253
938.1992,92.4173
939.1634,92.1742
940.1276,91.9183
941.0919,91.6893
942.0561,91.5298
943.0203,91.4678
943.9846,91.507
944.9488,91.6274
945.9130,91.7958
946.8773,91.9826
947.8415,92.1742
948.8057,92.3769
949.7700,92.6078
950.7342,92.8789
951.6984,93.1829
952.6627,93.4891
953.6269,93.7543
954.5911,93.9447
955.5554,94.0569
956.5196,94.1236
957.4838,94.1982
958.4481,94.3246
959.4123,94.5122
960.3765,94.7309
961.3408,94.9298
962.3050,95.069
963.2692,95.1428
964.2335,95.1789
965.1977,95.2182
966.1619,95.2881
967.1262,95.3906
968.0904,95.5086
969.0546,95.6221
970.0189,95.7208
970.9831,95.8015
971.9473,95.856
972.9116,95.8639
973.8758,95.7985
974.8400,95.6467
975.8043,95.4286
976.7685,95.1991
977.7327,95.0262
978.6970,94.955
979.6612,94.9792
980.6254,95.0376
981.5897,95.042
982.5539,94.9247
983.5181,94.6778
984.4824,94.3588
985.4466,94.0583
986.4108,93.848
987.3751,93.7407
988.3393,93.6848
989.3035,93.5944
990.2678,93.3987
991.2320,93.0802
992.1962,92.6826
993.1605,92.2866
994.1247,91.9698
995.0889,91.7751
996.0532,91.6983
997.0174,91.6977
997.9816,91.7183
998.9459,91.7172
999.9101,91.6794
1000.8743,91.6153
1001.8386,91.5433
1002.8028,91.4696
1003.7670,91.3808
1004.7313,91.2542
1005.6955,91.0803
1006.6597,90.8772
1007.6240,90.6848
1008.5882,90.5376
1009.5524,90.4359
1010.5167,90.3365
1011.4809,90.1745
1012.4451,89.9019
1013.4094,89.5179
1014.3736,89.0654
1015.3378,88.6003
1016.3021,88.1546
1017.2663,87.7235
1018.2305,87.2801
1019.1948,86.8063
1020.1590,86.3135
1021.1232,85.8381
1022.0875,85.4181
1023.0517,85.07
1024.0160,84.7807
1024.9802,84.5177
1025.9445,84.2453
1026.9087,83.936
1027.8729,83.5723
1028.8372,83.1465
1029.8014,82.6631
1030.7656,82.1439
1031.7299,81.6269
1032.6941,81.1526
1033.6583,80.7431
1034.6226,80.3873
1035.5868,80.0446
1036.5510,79.6693
1037.5153,79.2407
1038.4795,78.778
1039.4437,78.3292
1040.4080,77.9388
1041.3722,77.6169
1042.3364,77.329
1043.3007,77.0122
1044.2649,76.6097
1045.2291,76.1018
1046.1934,75.5161
1047.1576,74.9124
1048.1218,74.3532
1049.0861,73.8801
1050.0503,73.5055
1051.0145,73.2206
1051.9788,73.0081
1052.9430,72.8509
1053.9072,72.7324
1054.8715,72.6318
1055.8357,72.5245
1056.7999,72.3903
1057.7642,72.2268
1058.7284,72.0573
1059.6926,71.9244
1060.6569,71.8708
1061.6211,71.919
1062.5853,72.0617
1063.5496,72.2688
1064.5138,72.5034
1065.4780,72.7377
1066.4423,72.9611
1067.4065,73.1775
1068.3707,73.3994
1069.3350,73.6419
1070.2992,73.9173
1071.2634,74.2302
1072.2277,74.573
1073.1919,74.9263
1074.1561,75.2667
1075.1204,75.5786
1076.0846,75.86
1077.0488,76.1176
1078.0131,76.3527
1078.9773,76.553
1079.9415,76.6984
1080.9058,76.7803
1081.8700,76.8166
1082.8342,76.8459
1083.7985,76.9017
1084.7627,76.9838
1085.7269,77.0493
1086.6912,77.0355
1087.6554,76.9011
1088.6196,76.6573
1089.5839,76.3656
1090.5481,76.1021
1091.5123,75.9142
1092.4766,75.7977
1093.4408,75.7058
1094.4050,75.581
1095.3693,75.3886
1096.3335,75.1309
1097.2977,74.8376
1098.2620,74.5422
1099.2262,74.2629
1100.1904,73.9991
1101.1547,73.7412
1102.1189,73.4858
1103.0831,73.243
1104.0474,73.033
1105.0116,72.8762
1105.9758,72.7858
1106.9401,72.7679
1107.9043,72.8267
1108.8685,72.9683
1109.8328,73.198
1110.7970,73.5115
1111.7612,73.8891
1112.7255,74.2986
1113.6897,74.7078
1114.6539,75.1002
1115.6182,75.4822
1116.5824,75.8779
1117.5466,76.3143
1118.5109,76.8069
1119.4751,77.351
1120.4393,77.9207
1121.4036,78.4732
1122.3678,78.957
1123.3320,79.3234
1124.2963,79.5407
1125.2605,79.6027
1126.2247,79.5272
1127.1890,79.3422
1128.1532,79.0712
1129.1174,78.7293
1130.0817,78.335
1131.0459,77.928
1132.0101,77.5753
1132.9744,77.3533
1133.9386,77.3145
1134.9028,77.4602
1135.8671,77.7398
1136.8313,78.0833
1137.7955,78.4462
1138.7598,78.8386
1139.7240,79.3175
1140.6882,79.9506
1141.6525,80.7784
1142.6167,81.7964
1143.5809,82.9615
1144.5452,84.2133
1145.5094,85.492
1146.4736,86.7476
1147.4379,87.9415
1148.4021,89.0486
1149.3663,90.0612
1150.3306,90.9908
1151.2948,91.8601
1152.2590,92.6889
1153.2233,93.4807
1154.1875,94.2205
1155.1517,94.8852
1156.1160,95.4566
1157.0802,95.93
1158.0444,96.312
1159.0087,96.6139
1159.9729,96.8465
1160.9371,97.0222
1161.9014,97.1592
1162.8656,97.2834
1163.8298,97.4223
1164.7941,97.5939
1165.7583,97.7956
1166.7225,98.0017
1167.6868,98.1726
1168.6510,98.2726
1169.6152,98.2882
1170.5795,98.2351
1171.5437,98.1493
1172.5079,98.0672
1173.4722,98.0069
1174.4364,97.9615
1175.4006,97.9074
1176.3649,97.8231
1177.3291,97.7026
1178.2933,97.5592
1179.2576,97.4155
1180.2218,97.2913
1181.1860,97.1954
1182.1503,97.1236
1183.1145,97.0622
1184.0787,96.9914
1185.0430,96.8881
1186.0072,96.7304
1186.9714,96.5048
1187.9357,96.2139
1188.8999,95.881
1189.8641,95.5448
1190.8284,95.2476
1191.7926,95.0187
1192.7568,94.8623
1193.7211,94.7543
1194.6853,94.6499
1195.6495,94.5007
1196.6138,94.2723
1197.5780,93.9571
1198.5422,93.5738
1199.5065,93.1551
1200.4707,92.7305
1201.4349,92.3142
1202.3992,91.9031
1203.3634,91.4839
1204.3276,91.0424
1205.2919,90.5679
1206.2561,90.0507
1207.2203,89.4762
1208.1846,88.8221
1209.1488,88.0628
1210.1130,87.179
1211.0773,86.1656
1212.0415,85.0326
1213.0057,83.7965
1213.9700,82.4686
1214.9342,81.0477
1215.8984,79.5249
1216.8627,77.8973
1217.8269,76.1843
1218.7911,74.4358
1219.7554,72.7278
1220.7196,71.1484
1221.6838,69.7818
1222.6481,68.6978
1223.6123,67.948
1224.5765,67.5653
1225.5408,67.5641
1226.5050,67.9414
1227.4692,68.6806
1228.4335,69.756
1229.3977,71.1356
1230.3619,72.7782
1231.3262,74.628
1232.2904,76.6113
1233.2546,78.6423
1234.2189,80.6359
1235.1831,82.5229
1236.1473,84.2585
1237.1116,85.8223
1238.0758,87.2112
1239.0400,88.4319
1240.0043,89.4964
1240.9685,90.4195
1241.9327,91.2181
1242.8970,91.9086
1243.8612,92.5047
1244.8254,93.0146
1245.7897,93.4426
1246.7539,93.7919
1247.7181,94.0684
1248.6824,94.2821
1249.6466,94.4454
1250.6108,94.5694
1251.5751,94.6604
1252.5393,94.7201
1253.5035,94.7498
1254.4678,94.7577
1255.4320,94.7632
1256.3962,94.7958
1257.3605,94.8832
1258.3247,95.0348
1259.2889,95.2283
1260.2532,95.4112
1261.2174,95.5238
1262.1816,95.5337
1263.1459,95.4579
1264.1101,95.3573
1265.0743,95.3047
1266.0386,95.3477
1267.0028,95.4866
1267.9670,95.6758
1268.9313,95.8489
1269.8955,95.9515
1270.8597,95.9654
1271.8240,95.9124
1272.7882,95.8363
1273.7524,95.7777
1274.7167,95.756
1275.6809,95.7665
1276.6451,95.789
1277.6094,95.8007
1278.5736,95.7869
1279.5378,95.7464
1280.5021,95.6894
1281.4663,95.6307
1282.4305,95.5817
1283.3948,95.5467
1284.3590,95.5225
1285.3232,95.5023
1286.2875,95.4781
1287.2517,95.443
1288.2159,95.3923
1289.1802,95.3255
1290.1444,95.2473
1291.1086,95.1672
1292.0729,95.0961
1293.0371,95.041
1294.0013,95.001
1294.9656,94.9662
1295.9298,94.9224
1296.8940,94.8569
1297.8583,94.7642
1298.8225,94.6469
1299.7867,94.5136
1300.7510,94.3753
1301.7152,94.2428
1302.6794,94.1243
1303.6437,94.0232
1304.6079,93.9361
1305.5721,93.8533
1306.5364,93.7623
1307.5006,93.6544
1308.4648,93.529
1309.4291,93.3929
1310.3933,93.2542
1311.3575,93.1156
1312.3218,92.9716
1313.2860,92.8118
1314.2502,92.628
1315.2145,92.421
1316.1787,92.1999
1317.1429,91.977
1318.1072,91.7602
1319.0714,91.5473
1320.0356,91.3264
1320.9999,91.0803
1321.9641,90.791
1322.9283,90.4421
1323.8926,90.0187
1324.8568,89.5096
1325.8210,88.9125
1326.7853,88.2379
1327.7495,87.5048
1328.7137,86.7309
1329.6780,85.9217
1330.6422,85.0686
1331.6064,84.1585
1332.5707,83.1851
1333.5349,82.1516
1334.4991,81.0616
1335.4634,79.9048
1336.4276,78.6552
1337.3918,77.2924
1338.3561,75.845
1339.3203,74.4161
1340.2845,73.1388
1341.2488,72.0906
1342.2130,71.2615
1343.1772,70.5973
1344.1415,70.0499
1345.1057,69.6001
1346.0699,69.2562
1347.0342,69.0411
1347.9984,68.9761
1348.9626,69.0686
1349.9269,69.3108
1350.8911,69.6877
1351.8553,70.1916
1352.8196,70.8305
1353.7838,71.6235
1354.7480,72.5777
1355.7123,73.6657
1356.6765,74.8278
1357.6407,76.0042
1358.6050,77.1706
1359.5692,78.347
1360.5334,79.571
1361.4977,80.8427
1362.4619,82.0831
1363.4261,83.1714
1364.3904,84.0377
1365.3546,84.6933
1366.3188,85.1846
1367.2831,85.5432
1368.2473,85.7701
1369.2115,85.8448
1370.1758,85.7384
1371.1400,85.4182
1372.1042,84.8514
1373.0685,84.0301
1374.0327,83.0215
1374.9969,81.989
1375.9612,81.1258
1376.9254,80.5578
1377.8896,80.3251
1378.8539,80.4225
1379.8181,80.8223
1380.7823,81.465
1381.7466,82.2575
1382.7108,83.1007
1383.6750,83.9245
1384.6393,84.691
1385.6035,85.369
1386.5677,85.9102
1387.5320,86.2664
1388.4962,86.4324
1389.4604,86.4464
1390.4247,86.342
1391.3889,86.1152
1392.3531,85.7259
1393.3174,85.1203
1394.2816,84.2558
1395.2458,83.1143
1396.2101,81.6977
1397.1743,80.0313
1398.1385,78.1957
1399.1028,76.3387
1400.0670,74.6225
1401.0313,73.1497
1401.9955,71.9397
1402.9597,70.9649
1403.9240,70.2104
1404.8882,69.7097
1405.8524,69.5207
1406.8167,69.6689
1407.7809,70.1302
1408.7451,70.8684
1409.7094,71.8652
1410.6736,73.0993
1411.6378,74.5002
1412.6021,75.945
1413.5663,77.3225
1414.5305,78.6043
1415.4948,79.8646
1416.4590,81.2454
1417.4232,82.8588
1418.3875,84.6292
1419.3517,86.2717
1420.3159,87.5561
1421.2802,88.497
1422.2444,89.238
1423.2086,89.8912
1424.1729,90.4871
1425.1371,91.0007
1426.1013,91.3967
1427.0656,91.658
1428.0298,91.7888
1428.9940,91.8076
1429.9583,91.7436
1430.9225,91.6282
1431.8867,91.4739
1432.8510,91.2511
1433.8152,90.8778
1434.7794,90.2354
1435.7437,89.2473
1436.7079,88.0133
1437.6721,86.7999
1438.6364,85.8034
1439.6006,85.0244
1440.5648,84.3772
1441.5291,83.8063
1442.4933,83.3182
1443.4575,82.9623
1444.4218,82.7941
1445.3860,82.8442
1446.3502,83.1044
1447.3145,83.5318
1448.2787,84.0612
1449.2429,84.6274
1450.2072,85.1859
1451.1714,85.7169
1452.1356,86.2145
1453.0999,86.6742
1454.0641,87.0902
1455.0283,87.46
1455.9926,87.798
1456.9568,88.1378
1457.9210,88.4856
1458.8853,88.8047
1459.8495,89.0823
1460.8137,89.3498
1461.7780,89.6691
1462.7422,90.1269
1463.7064,90.8036
1464.6707,91.6886
1465.6349,92.6259
1466.5991,93.4301
1467.5634,94.0396
1468.5276,94.5074
1469.4918,94.918
1470.4561,95.3436
1471.4203,95.8303
1472.3845,96.3728
1473.3488,96.8982
1474.3130,97.3322
1475.2772,97.6739
1476.2415,97.9568
1477.2057,98.1974
1478.1699,98.3965
1479.1342,98.5572
1480.0984,98.6951
1481.0626,98.8344
1482.0269,98.9925
1482.9911,99.1655
1483.9553,99.328
1484.9196,99.4449
1485.8838,99.485
1486.8480,99.4343
1487.8123,99.3184
1488.7765,99.2219
1489.7407,99.2328
1490.7050,99.3438
1491.6692,99.4798
1492.6334,99.5882
1493.5977,99.6569
1494.5619,99.6967
1495.5261,99.7289
1496.4904,99.7762
1497.4546,99.8478
1498.4188,99.9282
1499.3831,99.9946
1500.3473,100.04
1501.3115,100.071
1502.2758,100.09
1503.2400,100.092
1504.2042,100.058
1505.1685,99.9599
1506.1327,99.7925
1507.0969,99.6741
1508.0612,99.7539
1509.0254,99.9537
1509.9896,100.131
1510.9539,100.23
1511.9181,100.245
1512.8823,100.187
1513.8466,100.081
1514.8108,99.9754
1515.7750,99.9244
1516.7393,99.9591
1517.7035,100.058
1518.6677,100.153
1519.6320,100.176
1520.5962,100.106
1521.5604,99.9936
1522.5247,99.9201
1523.4889,99.9319
1524.4531,100.02
1525.4174,100.148
1526.3816,100.276
1527.3458,100.378
1528.3101,100.436
1529.2743,100.444
1530.2385,100.396
1531.2028,100.296
1532.1670,100.166
1533.1312,100.056
1534.0955,100.018
1535.0597,100.062
1536.0239,100.161
1536.9882,100.284
1537.9524,100.4
1538.9166,100.467
1539.8809,100.403
1540.8451,100.17
1541.8093,99.9295
1542.7736,99.8474
1543.7378,99.9058
1544.7020,100.034
1545.6663,100.177
1546.6305,100.297
1547.5947,100.369
1548.5590,100.379
1549.5232,100.332
1550.4874,100.251
1551.4517,100.173
1552.4159,100.127
1553.3801,100.124
1554.3444,100.152
1555.3086,100.187
1556.2728,100.191
1557.2371,100.121
1558.2013,99.9764
1559.1655,99.8666
1560.1298,99.8622
1561.0940,99.9114
1562.0582,99.9613
1563.0225,99.9925
1563.9867,100.002
1564.9509,99.9916
1565.9152,99.964
1566.8794,99.9203
1567.8436,99.8623
1568.8079,99.7961
1569.7721,99.7328
1570.7363,99.6802
1571.7006,99.6356
1572.6648,99.5898
1573.6290,99.5324
1574.5933,99.4585
1575.5575,99.3785
1576.5217,99.3205
1577.4860,99.3039
1578.4502,99.3167
1579.4144,99.3349
1580.3787,99.343
1581.3429,99.334
1582.3071,99.3042
1583.2714,99.2512
1584.2356,99.1726
1585.1998,99.0684
1586.1641,98.9428
1587.1283,98.8081
1588.0925,98.685
1589.0568,98.5962
1590.0210,98.5547
1590.9852,98.5524
1591.9495,98.5599
1592.9137,98.5386
1593.8779,98.4592
1594.8422,98.3189
1595.8064,98.143
1596.7706,97.9689
1597.7349,97.8256
1598.6991,97.7225
1599.6633,97.6508
1600.6276,97.5896
1601.5918,97.5125
1602.5560,97.3975
1603.5203,97.2372
1604.4845,97.0428
1605.4487,96.8391
1606.4130,96.653
1607.3772,96.502
1608.3414,96.3852
1609.3057,96.2831
1610.2699,96.1696
1611.2341,96.0283
1612.1984,95.8537
1613.1626,95.6441
1614.1268,95.3959
1615.0911,95.1128
1616.0553,94.8256
1617.0195,94.5865
1617.9838,94.417
1618.9480,94.288
1619.9122,94.1558
1620.8765,93.9899
1621.8407,93.7789
1622.8049,93.5362
1623.7692,93.2973
1624.7334,93.0954
1625.6976,92.9354
1626.6619,92.7986
1627.6261,92.6653
1628.5903,92.5279
1629.5546,92.3899
1630.5188,92.2562
1631.4830,92.1248
1632.4473,91.9838
1633.4115,91.8117
1634.3757,91.5848
1635.3400,91.31
1636.3042,91.0559
1637.2684,90.884
1638.2327,90.7763
1639.1969,90.6869
1640.1611,90.5905
1641.1254,90.4807
1642.0896,90.3554
1643.0538,90.2001
1644.0181,89.9746
1644.9823,89.6163
1645.9465,89.1033
1646.9108,88.5554
1647.8750,88.1568
1648.8392,87.9533
1649.8035,87.8615
1650.7677,87.7697
1651.7319,87.5467
1652.6962,87.046
1653.6604,86.2969
1654.6246,85.5725
1655.5889,84.9979
1656.5531,84.5093
1657.5173,84.038
1658.4816,83.5421
1659.4458,82.9735
1660.4100,82.2557
1661.3743,81.3175
1662.3385,80.1914
1663.3027,79.0438
1664.2670,78.024
1665.2312,77.1277
1666.1954,76.204
1667.1597,75.0119
1668.1239,73.3051
1669.0881,71.0344
1670.0524,68.5367
1671.0166,66.2685
1671.9808,64.3013
1672.9451,62.3228
1673.9093,59.9979
1674.8735,57.26
1675.8378,54.4014
1676.8020,51.8545
1677.7662,49.8379
1678.7305,48.2738
1679.6947,46.9607
1680.6589,45.7283
1681.6232,44.5046
1682.5874,43.3671
1683.5516,42.5569
1684.5159,42.2647
1685.4801,42.4012
1686.4443,42.8067
1687.4086,43.4346
1688.3728,44.2718
1689.3370,45.2544
1690.3013,46.2783
1691.2655,47.264
1692.2297,48.2071
1693.1940,49.1767
1694.1582,50.2701
1695.1224,51.5531
1696.0867,53.0237
1697.0509,54.6477
1698.0151,56.4482
1698.9794,58.4763
1699.9436,60.634
1700.9078,62.6735
1701.8721,64.4266
1702.8363,65.9428
1703.8005,67.4326
1704.7648,69.1156
1705.7290,71.0596
1706.6932,73.117
1707.6575,75.0549
1708.6217,76.7571
1709.5859,78.2689
1710.5502,79.6949
1711.5144,81.0984
1712.4786,82.4755
1713.4429,83.7951
1714.4071,85.0764
1715.3713,86.4448
1716.3356,88.0289
1717.2998,89.6732
1718.2640,91.0062
1719.2283,91.8993
1720.1925,92.4947
1721.1567,92.9644
1722.1210,93.4075
1723.0852,93.8504
1724.0494,94.2735
1725.0137,94.6463
1725.9779,94.9548
1726.9421,95.2055
1727.9064,95.4101
1728.8706,95.5755
1729.8348,95.7087
1730.7991,95.8336
1731.7633,96.0002
1732.7275,96.2568
1733.6918,96.5759
1734.6560,96.8485
1735.6202,97.0029
1736.5845,97.0583
1737.5487,97.0728
1738.5129,97.1009
1739.4772,97.1796
1740.4414,97.3189
1741.4056,97.4945
1742.3699,97.6608
1743.3341,97.7798
1744.2983,97.8391
1745.2626,97.8484
1746.2268,97.8281
1747.1910,97.8003
1748.1553,97.7823
1749.1195,97.7801
1750.0837,97.7862
1751.0480,97.7852
1752.0122,97.7622
1752.9764,97.703
1753.9407,97.5929
1754.9049,97.4204
1755.8691,97.1836
1756.8334,96.8919
1757.7976,96.5544
1758.7618,96.1631
1759.7261,95.6911
1760.6903,95.1208
1761.6545,94.4802
1762.6188,93.8442
1763.5830,93.2876
1764.5472,92.8401
1765.5115,92.488
1766.4757,92.2032
1767.4399,91.9678
1768.4042,91.7851
1769.3684,91.6837
1770.3326,91.7175
1771.2969,91.9459
1772.2611,92.3794
1773.2253,92.9418
1774.1896,93.5278
1775.1538,94.0843
1776.1180,94.6193
1777.0823,95.167
1778.0465,95.7542
1779.0107,96.3756
1779.9750,96.9879
1780.9392,97.5328
1781.9034,97.9803
1782.8677,98.346
1783.8319,98.6688
1784.7961,98.9761
1785.7604,99.268
1786.7246,99.5279
1787.6888,99.7417
1788.6531,99.908
1789.6173,100.038
1790.5815,100.15
1791.5458,100.261
1792.5100,100.376
1793.4742,100.481
1794.4385,100.562
1795.4027,100.615
1796.3669,100.647
1797.3312,100.669
1798.2954,100.698
1799.2596,100.75
1800.2239,100.832
1801.1881,100.933
1802.1523,101.033
1803.1166,101.113
1804.0808,101.168
1805.0450,101.2
1806.0093,101.214
1806.9735,101.214
1807.9377,101.206
1808.9020,101.197
1809.8662,101.195
1810.8304,101.209
1811.7947,101.243
1812.7589,101.29
1813.7231,101.341
1814.6874,101.387
1815.6516,101.423
1816.6158,101.448
1817.5801,101.463
1818.5443,101.473
1819.5085,101.478
1820.4728,101.48
1821.4370,101.48
1822.4012,101.477
1823.3655,101.473
1824.3297,101.467
1825.2939,101.459
1826.2582,101.447
1827.2224,101.432
1828.1866,101.416
1829.1509,101.404
1830.1151,101.401
1831.0793,101.406
1832.0436,101.416
1833.0078,101.429
1833.9720,101.446
1834.9363,101.47
1835.9005,101.503
1836.8647,101.54
1837.8290,101.577
1838.7932,101.606
1839.7574,101.622
1840.7217,101.624
1841.6859,101.611
1842.6501,101.588
1843.6144,101.561
1844.5786,101.541
1845.5428,101.537
1846.5071,101.55
1847.4713,101.576
1848.4355,101.609
1849.3998,101.643
1850.3640,101.673
1851.3282,101.696
1852.2925,101.708
1853.2567,101.712
1854.2209,101.711
1855.1852,101.709
1856.1494,101.708
1857.1136,101.709
1858.0779,101.708
1859.0421,101.703
1860.0063,101.69
1860.9706,101.669
1861.9348,101.639
1862.8990,101.604
1863.8633,101.569
1864.8275,101.541
1865.7917,101.526
1866.7560,101.532
1867.7202,101.564
1868.6844,101.613
1869.6487,101.665
1870.6129,101.704
1871.5771,101.725
1872.5414,101.729
1873.5056,101.722
1874.4698,101.71
1875.4341,101.705
1876.3983,101.716
1877.3625,101.747
1878.3268,101.794
1879.2910,101.84
1880.2552,101.868
1881.2195,101.866
1882.1837,101.834
1883.1479,101.785
1884.1122,101.739
1885.0764,101.708
1886.0406,101.696
1887.0049,101.7
1887.9691,101.709
1888.9333,101.717
1889.8976,101.719
1890.8618,101.718
1891.8260,101.712
1892.7903,101.704
1893.7545,101.695
1894.7188,101.688
1895.6830,101.691
1896.6472,101.705
1897.6115,101.728
1898.5757,101.753
1899.5399,101.772
1900.5042,101.781
1901.4684,101.782
1902.4326,101.78
1903.3969,101.779
1904.3611,101.778
1905.3253,101.774
1906.2896,101.764
1907.2538,101.748
1908.2180,101.732
1909.1823,101.722
1910.1465,101.724
1911.1107,101.736
1912.0750,101.75
1913.0392,101.755
1914.0034,101.745
1914.9677,101.718
1915.9319,101.683
1916.8961,101.651
1917.8604,101.636
1918.8246,101.64
1919.7888,101.657
1920.7531,101.672
1921.7173,101.677
1922.6815,101.67
1923.6458,101.659
1924.6100,101.655
1925.5742,101.665
1926.5385,101.687
1927.5027,101.712
1928.4669,101.733
1929.4312,101.743
1930.3954,101.74
1931.3596,101.725
1932.3239,101.706
1933.2881,101.689
1934.2523,101.681
1935.2166,101.686
1936.1808,101.705
1937.1450,101.731
1938.1093,101.756
1939.0735,101.768
1940.0377,101.757
1941.0020,101.722
1941.9662,101.672
1942.9304,101.626
1943.8947,101.601
1944.8589,101.606
1945.8231,101.636
1946.7874,101.679
1947.7516,101.72
1948.7158,101.753
1949.6801,101.772
1950.6443,101.779
1951.6085,101.776
1952.5728,101.765
1953.5370,101.753
1954.5012,101.746
1955.4655,101.75
1956.4297,101.769
1957.3939,101.798
1958.3582,101.83
1959.3224,101.852
1960.2866,101.858
1961.2509,101.848
1962.2151,101.828
1963.1793,101.804
1964.1436,101.781
1965.1078,101.764
1966.0720,101.758
1967.0363,101.766
1968.0005,101.79
1968.9647,101.822
1969.9290,101.848
1970.8932,101.856
1971.8574,101.84
1972.8217,101.809
1973.7859,101.779
1974.7501,101.763
1975.7144,101.768
1976.6786,101.788
1977.6428,101.809
1978.6071,101.824
1979.5713,101.832
1980.5355,101.84
1981.4998,101.851
1982.4640,101.862
1983.4282,101.863
1984.3925,101.841
1985.3567,101.793
1986.3209,101.727
1987.2852,101.658
1988.2494,101.606
1989.2136,101.586
1990.1779,101.602
1991.1421,101.648
1992.1063,101.707
1993.0706,101.758
1994.0348,101.789
1994.9990,101.795
1995.9633,101.781
1996.9275,101.759
1997.8917,101.74
1998.8560,101.73
1999.8202,101.729
2000.7844,101.734
2001.7487,101.739
2002.7129,101.743
2003.6771,101.75
2004.6414,101.766
2005.6056,101.794
2006.5698,101.828
2007.5341,101.855
2008.4983,101.864
2009.4625,101.85
2010.4268,101.817
2011.3910,101.778
2012.3552,101.745
2013.3195,101.725
2014.2837,101.717
2015.2479,101.72
2016.2122,101.731
2017.1764,101.749
2018.1406,101.771
2019.1049,101.79
2020.0691,101.797
2021.0333,101.785
2021.9976,101.754
2022.9618,101.713
2023.9260,101.676
2024.8903,101.658
2025.8545,101.665
2026.8187,101.695
2027.7830,101.737
2028.7472,101.778
2029.7114,101.806
2030.6757,101.816
2031.6399,101.809
2032.6041,101.792
2033.5684,101.773
2034.5326,101.761
2035.4968,101.76
2036.4611,101.767
2037.4253,101.778
2038.3895,101.784
2039.3538,101.783
2040.3180,101.777
2041.2822,101.772
2042.2465,101.773
2043.2107,101.78
2044.1749,101.789
2045.1392,101.793
2046.1034,101.786
2047.0676,101.768
2048.0320,101.745
2048.9961,101.726
2049.9604,101.718
2050.9246,101.724
2051.8889,101.74
2052.8530,101.76
2053.8174,101.778
2054.7815,101.79
2055.7458,101.796
2056.7100,101.799
2057.6743,101.801
2058.6384,101.801
2059.6028,101.796
2060.5669,101.784
2061.5313,101.765
2062.4954,101.745
2063.4597,101.73
2064.4238,101.727
2065.3882,101.735
2066.3523,101.75
2067.3167,101.766
2068.2808,101.775
2069.2451,101.774
2070.2092,101.763
2071.1736,101.747
2072.1377,101.732
2073.1021,101.723
2074.0662,101.721
2075.0305,101.727
2075.9946,101.736
2076.9590,101.744
2077.9231,101.75
2078.8875,101.752
2079.8516,101.75
2080.8159,101.745
2081.7800,101.741
2082.7444,101.737
2083.7085,101.735
2084.6729,101.735
2085.6370,101.735
2086.6013,101.733
2087.5654,101.726
2088.5298,101.716
2089.4939,101.703
2090.4583,101.693
2091.4224,101.689
2092.3867,101.691
2093.3508,101.7
2094.3152,101.708
2095.2793,101.712
2096.2437,101.705
2097.2078,101.688
2098.1721,101.665
2099.1362,101.646
2100.1006,101.638
2101.0647,101.648
2102.0291,101.675
2102.9932,101.709
2103.9575,101.739
2104.9216,101.758
2105.8860,101.764
2106.8501,101.762
2107.8145,101.759
2108.7786,101.757
2109.7429,101.755
2110.7070,101.745
2111.6714,101.727
2112.6355,101.708
2113.5999,101.701
2114.5640,101.72
2115.5283,101.764
2116.4924,101.818
2117.4568,101.857
2118.4209,101.862
2119.3853,101.828
2120.3494,101.769
2121.3137,101.709
2122.2778,101.669
2123.2422,101.658
2124.2063,101.672
2125.1707,101.696
2126.1348,101.719
2127.0991,101.737
2128.0632,101.751
2129.0276,101.767
2129.9917,101.785
2130.9561,101.805
2131.9202,101.82
2132.8845,101.827
2133.8486,101.825
2134.8130,101.814
2135.7771,101.8
2136.7415,101.785
2137.7056,101.772
2138.6699,101.764
2139.6340,101.76
2140.5984,101.762
2141.5625,101.768
2142.5269,101.773
2143.4910,101.775
2144.4553,101.77
2145.4194,101.761
2146.3838,101.752
2147.3479,101.752
2148.3123,101.763
2149.2764,101.782
2150.2407,101.799
2151.2048,101.804
2152.1692,101.794
2153.1333,101.773
2154.0977,101.752
2155.0618,101.743
2156.0261,101.749
2156.9902,101.766
2157.9546,101.786
2158.9187,101.8
2159.8831,101.807
2160.8472,101.81
2161.8115,101.814
2162.7756,101.823
2163.7400,101.834
2164.7041,101.847
2165.6685,101.857
2166.6326,101.865
2167.5969,101.873
2168.5610,101.884
2169.5254,101.896
2170.4895,101.906
2171.4539,101.911
2172.4180,101.91
2173.3823,101.903
2174.3464,101.894
2175.3108,101.889
2176.2749,101.89
2177.2393,101.896
2178.2034,101.903
2179.1677,101.906
2180.1318,101.901
2181.0962,101.89
2182.0603,101.878
2183.0247,101.873
2183.9888,101.879
2184.9531,101.897
2185.9172,101.922
2186.8816,101.946
2187.8457,101.958
2188.8101,101.951
2189.7742,101.925
2190.7385,101.889
2191.7026,101.855
2192.6670,101.837
2193.6311,101.845
2194.5955,101.875
2195.5596,101.915
2196.5239,101.945
2197.4880,101.955
2198.4524,101.941
2199.4165,101.915
2200.3809,101.894
2201.3450,101.889
2202.3093,101.901
2203.2734,101.923
2204.2378,101.945
2205.2019,101.961
2206.1663,101.972
2207.1304,101.981
2208.0947,101.991
2209.0588,102.002
2210.0232,102.006
2210.9873,102.001
2211.9517,101.986
2212.9158,101.966
2213.8801,101.944
2214.8442,101.927
2215.8086,101.919
2216.7727,101.923
2217.7371,101.938
2218.7012,101.96
2219.6655,101.978
2220.6296,101.985
2221.5940,101.975
2222.5581,101.954
2223.5225,101.933
2224.4866,101.924
2225.4509,101.93
2226.4150,101.949
2227.3794,101.971
2228.3435,101.985
2229.3079,101.99
2230.2720,101.987
2231.2363,101.979
2232.2004,101.967
2233.1648,101.95
2234.1289,101.929
2235.0933,101.909
2236.0574,101.897
2237.0217,101.899
2237.9858,101.919
2238.9502,101.954
2239.9143,101.995
2240.8787,102.033
2241.8428,102.062
2242.8071,102.079
2243.7712,102.084
2244.7356,102.082
2245.6997,102.076
2246.6641,102.069
2247.6282,102.061
2248.5925,102.051
2249.5566,102.038
2250.5210,102.024
2251.4851,102.014
2252.4495,102.011
2253.4136,102.019
2254.3779,102.036
2255.3420,102.057
2256.3064,102.075
2257.2705,102.084
2258.2349,102.081
2259.1990,102.065
2260.1633,102.04
2261.1274,102.014
2262.0918,101.993
2263.0559,101.984
2264.0203,101.991
2264.9844,102.013
2265.9487,102.042
2266.9128,102.069
2267.8772,102.084
2268.8413,102.085
2269.8057,102.071
2270.7698,102.049
2271.7341,102.026
2272.6982,102.008
2273.6626,101.994
2274.6267,101.983
2275.5911,101.971
2276.5552,101.958
2277.5195,101.945
2278.4836,101.938
2279.4480,101.941
2280.4121,101.953
2281.3765,101.968
2282.3406,101.979
2283.3049,101.98
2284.2690,101.973
2285.2334,101.962
2286.1975,101.95
2287.1619,101.936
2288.1260,101.915
2289.0903,101.882
2290.0544,101.839
2291.0188,101.793
2291.9829,101.755
2292.9473,101.727
2293.9114,101.709
2294.8757,101.692
2295.8398,101.672
2296.8042,101.65
2297.7683,101.631
2298.7327,101.619
2299.6968,101.614
2300.6611,101.611
2301.6252,101.599
2302.5896,101.572
2303.5537,101.525
2304.5181,101.463
2305.4822,101.393
2306.4465,101.33
2307.4106,101.286
2308.3750,101.269
2309.3391,101.273
2310.3035,101.279
2311.2676,101.265
2312.2319,101.219
2313.1960,101.154
2314.1604,101.091
2315.1245,101.049
2316.0889,101.028
2317.0530,101.006
2318.0173,100.955
2318.9814,100.862
2319.9458,100.739
2320.9099,100.622
2321.8743,100.545
2322.8384,100.516
2323.8027,100.516
2324.7668,100.517
2325.7312,100.512
2326.6953,100.512
2327.6597,100.533
2328.6238,100.572
2329.5881,100.597
2330.5522,100.569
2331.5166,100.472
2332.4807,100.334
2333.4451,100.211
2334.4092,100.161
2335.3735,100.21
2336.3376,100.348
2337.3020,100.527
2338.2661,100.68
2339.2305,100.743
2340.1946,100.68
2341.1589,100.498
2342.1230,100.265
2343.0874,100.09
2344.0515,100.065
2345.0159,100.186
2345.9800,100.379
2346.9443,100.567
2347.9084,100.709
2348.8728,100.79
2349.8369,100.808
2350.8013,100.764
2351.7654,100.665
2352.7297,100.531
2353.6938,100.394
2354.6582,100.291
2355.6223,100.239
2356.5867,100.236
2357.5508,100.276
2358.5151,100.353
2359.4792,100.436
2360.4436,100.455
2361.4077,100.348
2362.3721,100.125
2363.3362,99.8867
2364.3005,99.7745
2365.2646,99.8759
2366.2290,100.168
2367.1931,100.536
2368.1575,100.853
2369.1216,101.044
2370.0859,101.115
2371.0500,101.118
2372.0144,101.111
2372.9785,101.125
2373.9429,101.164
2374.9070,101.218
2375.8713,101.275
2376.8354,101.329
2377.7998,101.381
2378.7639,101.431
2379.7283,101.478
2380.6924,101.524
2381.6567,101.571
2382.6208,101.622
2383.5852,101.677
2384.5493,101.731
2385.5137,101.78
2386.4778,101.815
2387.4421,101.834
2388.4063,101.836
2389.3706,101.829
2390.3347,101.819
2391.2991,101.813
2392.2632,101.813
2393.2275,101.819
2394.1917,101.827
2395.1560,101.835
2396.1201,101.84
2397.0845,101.845
2398.0486,101.85
2399.0129,101.858
2399.9771,101.871
2400.9414,101.886
2401.9055,101.898
2402.8699,101.902
2403.8340,101.891
2404.7983,101.865
2405.7625,101.827
2406.7268,101.787
2407.6909,101.752
2408.6553,101.73
2409.6194,101.72
2410.5837,101.72
2411.5479,101.723
2412.5122,101.726
2413.4763,101.726
2414.4407,101.724
2415.4048,101.722
2416.3691,101.725
2417.3333,101.734
2418.2976,101.749
2419.2617,101.768
2420.2261,101.788
2421.1902,101.803
2422.1545,101.807
2423.1187,101.797
2424.0830,101.775
2425.0471,101.744
2426.0115,101.714
2426.9756,101.689
2427.9399,101.673
2428.9041,101.663
2429.8684,101.654
2430.8325,101.645
2431.7969,101.636
2432.7610,101.63
2433.7253,101.629
2434.6895,101.633
2435.6538,101.636
2436.6179,101.635
2437.5823,101.629
2438.5464,101.622
2439.5107,101.618
2440.4749,101.622
2441.4392,101.631
2442.4033,101.641
2443.3677,101.646
2444.3318,101.641
2445.2961,101.627
2446.2603,101.607
2447.2246,101.588
2448.1887,101.576
2449.1531,101.575
2450.1172,101.586
2451.0815,101.603
2452.0457,101.621
2453.0100,101.636
2453.9741,101.645
2454.9385,101.648
2455.9026,101.647
2456.8669,101.643
2457.8311,101.638
2458.7954,101.634
2459.7595,101.634
2460.7239,101.641
2461.6880,101.657
2462.6523,101.68
2463.6165,101.705
2464.5808,101.724
2465.5449,101.734
2466.5093,101.734
2467.4734,101.725
2468.4377,101.711
2469.4019,101.69
2470.3662,101.664
2471.3303,101.637
2472.2947,101.618
2473.2588,101.613
2474.2231,101.628
2475.1873,101.66
2476.1516,101.698
2477.1157,101.731
2478.0801,101.749
2479.0442,101.748
2480.0085,101.731
2480.9727,101.705
2481.9370,101.677
2482.9011,101.653
2483.8655,101.638
2484.8296,101.633
2485.7939,101.635
2486.7581,101.642
2487.7224,101.647
2488.6865,101.65
2489.6509,101.653
2490.6150,101.662
2491.5793,101.678
2492.5435,101.701
2493.5078,101.722
2494.4719,101.733
2495.4363,101.731
2496.4004,101.718
2497.3647,101.703
2498.3289,101.696
2499.2932,101.701
2500.2573,101.716
2501.2217,101.733
2502.1858,101.744
2503.1501,101.745
2504.1143,101.736
2505.0786,101.719
2506.0427,101.699
2507.0071,101.677
2507.9712,101.654
2508.9355,101.632
2509.8997,101.612
2510.8640,101.598
2511.8281,101.593
2512.7925,101.596
2513.7566,101.607
2514.7209,101.62
2515.6851,101.633
2516.6494,101.645
2517.6135,101.654
2518.5779,101.662
2519.5420,101.664
2520.5063,101.657
2521.4705,101.642
2522.4348,101.622
2523.3989,101.609
2524.3633,101.614
2525.3274,101.642
2526.2917,101.684
2527.2559,101.725
2528.2202,101.745
2529.1843,101.737
2530.1487,101.705
2531.1128,101.664
2532.0771,101.627
2533.0413,101.602
2534.0056,101.585
2534.9697,101.57
2535.9341,101.556
2536.8982,101.546
2537.8625,101.55
2538.8267,101.569
2539.7910,101.598
2540.7551,101.622
2541.7195,101.626
2542.6836,101.603
2543.6479,101.558
2544.6121,101.507
2545.5764,101.469
2546.5405,101.458
2547.5049,101.476
2548.4690,101.517
2549.4333,101.567
2550.3975,101.611
2551.3618,101.639
2552.3259,101.645
2553.2903,101.627
2554.2544,101.591
2555.2188,101.547
2556.1829,101.505
2557.1472,101.476
2558.1113,101.467
2559.0757,101.477
2560.0398,101.5
2561.0042,101.523
2561.9683,101.539
2562.9326,101.544
2563.8967,101.543
2564.8611,101.544
2565.8252,101.551
2566.7896,101.567
2567.7537,101.586
2568.7180,101.603
2569.6821,101.611
2570.6465,101.61
2571.6106,101.599
2572.5750,101.583
2573.5391,101.567
2574.5034,101.555
2575.4675,101.55
2576.4319,101.551
2577.3960,101.555
2578.3604,101.558
2579.3245,101.554
2580.2888,101.541
2581.2529,101.517
2582.2173,101.487
2583.1814,101.455
2584.1458,101.427
2585.1099,101.409
2586.0742,101.406
2587.0383,101.418
2588.0027,101.441
2588.9668,101.464
2589.9312,101.474
2590.8953,101.465
2591.8596,101.439
2592.8237,101.407
2593.7881,101.386
2594.7522,101.386
2595.7166,101.41
2596.6807,101.447
2597.6450,101.484
2598.6091,101.509
2599.5735,101.52
2600.5376,101.521
2601.5020,101.526
2602.4661,101.54
2603.4304,101.562
2604.3945,101.582
2605.3589,101.584
2606.3230,101.559
2607.2874,101.507
2608.2515,101.44
2609.2158,101.381
2610.1799,101.35
2611.1443,101.354
2612.1084,101.387
2613.0728,101.431
2614.0369,101.464
2615.0012,101.469
2615.9653,101.444
2616.9297,101.395
2617.8938,101.333
2618.8582,101.269
2619.8223,101.211
2620.7866,101.162
2621.7507,101.125
2622.7151,101.104
2623.6792,101.101
2624.6436,101.113
2625.6077,101.133
2626.5720,101.151
2627.5361,101.157
2628.5005,101.147
2629.4646,101.122
2630.4290,101.088
2631.3931,101.052
2632.3574,101.024
2633.3215,101.006
2634.2859,101
2635.2500,101.002
2636.2144,101.008
2637.1785,101.017
2638.1428,101.029
2639.1069,101.05
2640.0713,101.081
2641.0354,101.12
2641.9998,101.162
2642.9639,101.197
2643.9282,101.218
2644.8923,101.221
2645.8567,101.212
2646.8208,101.201
2647.7852,101.197
2648.7493,101.212
2649.7136,101.244
2650.6777,101.287
2651.6421,101.327
2652.6062,101.35
2653.5706,101.35
2654.5347,101.332
2655.4990,101.31
2656.4631,101.295
2657.4275,101.291
2658.3916,101.293
2659.3560,101.293
2660.3201,101.286
2661.2844,101.276
2662.2485,101.266
2663.2129,101.259
2664.1770,101.251
2665.1414,101.234
2666.1055,101.207
2667.0698,101.174
2668.0339,101.144
2668.9983,101.128
2669.9624,101.128
2670.9268,101.14
2671.8909,101.155
2672.8552,101.169
2673.8193,101.18
2674.7837,101.19
2675.7478,101.202
2676.7122,101.216
2677.6763,101.232
2678.6406,101.242
2679.6047,101.242
2680.5691,101.227
2681.5332,101.195
2682.4976,101.154
2683.4617,101.114
2684.4260,101.089
2685.3901,101.086
2686.3545,101.104
2687.3186,101.134
2688.2830,101.162
2689.2471,101.178
2690.2114,101.179
2691.1755,101.166
2692.1399,101.148
2693.1040,101.127
2694.0684,101.106
2695.0325,101.086
2695.9968,101.069
2696.9609,101.058
2697.9253,101.056
2698.8894,101.065
2699.8538,101.081
2700.8179,101.098
2701.7822,101.107
2702.7463,101.104
2703.7107,101.087
2704.6748,101.059
2705.6392,101.024
2706.6033,100.989
2707.5676,100.959
2708.5317,100.94
2709.4961,100.932
2710.4602,100.937
2711.4246,100.95
2712.3887,100.966
2713.3530,100.98
2714.3171,100.984
2715.2815,100.975
2716.2456,100.951
2717.2100,100.916
2718.1741,100.876
2719.1384,100.839
2720.1025,100.813
2721.0669,100.803
2722.0310,100.806
2722.9954,100.815
2723.9595,100.823
2724.9238,100.822
2725.8879,100.813
2726.8523,100.8
2727.8164,100.789
2728.7808,100.782
2729.7449,100.774
2730.7092,100.757
2731.6733,100.728
2732.6377,100.69
2733.6018,100.658
2734.5662,100.645
2735.5303,100.659
2736.4946,100.688
2737.4587,100.714
2738.4231,100.715
2739.3872,100.687
2740.3516,100.64
2741.3157,100.598
2742.2800,100.583
2743.2441,100.598
2744.2085,100.63
2745.1726,100.653
2746.1370,100.643
2747.1011,100.598
2748.0654,100.533
2749.0295,100.475
2749.9939,100.45
2750.9580,100.466
2751.9224,100.511
2752.8865,100.563
2753.8508,100.599
2754.8149,100.607
2755.7793,100.594
2756.7434,100.576
2757.7078,100.569
2758.6719,100.579
2759.6362,100.598
2760.6003,100.609
2761.5647,100.597
2762.5288,100.56
2763.4932,100.51
2764.4573,100.466
2765.4216,100.445
2766.3857,100.45
2767.3501,100.476
2768.3142,100.509
2769.2786,100.535
2770.2427,100.546
2771.2070,100.544
2772.1711,100.531
2773.1355,100.517
2774.0996,100.507
2775.0640,100.499
2776.0281,100.49
2776.9924,100.473
2777.9565,100.446
2778.9209,100.412
2779.8850,100.382
2780.8494,100.37
2781.8135,100.38
2782.7778,100.407
2783.7419,100.435
2784.7063,100.449
2785.6704,100.441
2786.6348,100.417
2787.5989,100.387
2788.5632,100.36
2789.5273,100.337
2790.4917,100.315
2791.4558,100.287
2792.4202,100.253
2793.3843,100.216
2794.3486,100.182
2795.3127,100.158
2796.2771,100.143
2797.2412,100.134
2798.2056,100.129
2799.1697,100.123
2800.1340,100.112
2801.0981,100.097
2802.0625,100.079
2803.0266,100.066
2803.9910,100.067
2804.9551,100.085
2805.9194,100.116
2806.8835,100.144
2807.8479,100.152
2808.8120,100.127
2809.7764,100.07
2810.7405,99.9959
2811.7048,99.925
2812.6689,99.874
2813.6333,99.8486
2814.5974,99.8432
2815.5618,99.8459
2816.5259,99.846
2817.4902,99.8384
2818.4543,99.8237
2819.4187,99.8047
2820.3828,99.7828
2821.3472,99.7574
2822.3113,99.7272
2823.2756,99.6929
2824.2397,99.6575
2825.2041,99.6247
2826.1682,99.595
2827.1326,99.5646
2828.0967,99.5264
2829.0610,99.4748
2830.0251,99.4104
2830.9895,99.341
2831.9536,99.2786
2832.9180,99.2337
2833.8821,99.2089
2834.8464,99.1973
2835.8105,99.1845
2836.7749,99.1543
2837.7390,99.0941
2838.7034,99.0003
2839.6675,98.8794
2840.6318,98.7466
2841.5959,98.6208
2842.5603,98.5175
2843.5244,98.4415
2844.4888,98.3847
2845.4529,98.3293
2846.4172,98.257
2847.3813,98.1585
2848.3457,98.0386
2849.3098,97.9124
2850.2742,97.795
2851.2383,97.6925
2852.2026,97.5986
2853.1667,97.5011
2854.1311,97.3905
2855.0952,97.2677
2856.0596,97.1434
2857.0237,97.0322
2857.9880,96.9448
2858.9521,96.8833
2859.9165,96.8404
2860.8806,96.8036
2861.8450,96.76
2862.8091,96.7012
2863.7734,96.6267
2864.7375,96.5444
2865.7019,96.4663
2866.6660,96.4027
2867.6304,96.3555
2868.5945,96.3151
2869.5588,96.2642
2870.5229,96.1864
2871.4873,96.0758
2872.4514,95.9415
2873.4158,95.8046
2874.3799,95.689
2875.3442,95.6124
2876.3083,95.5815
2877.2727,95.5926
2878.2368,95.6363
2879.2012,95.7016
2880.1653,95.7776
2881.1296,95.853
2882.0938,95.9176
2883.0581,95.9647
2884.0222,95.995
2884.9866,96.0182
2885.9507,96.0489
2886.9150,96.0985
2887.8792,96.168
2888.8435,96.2462
2889.8076,96.3156
2890.7720,96.3625
2891.7361,96.3842
2892.7004,96.3892
2893.6646,96.3888
2894.6289,96.3882
2895.5930,96.3835
2896.5574,96.3664
2897.5215,96.3332
2898.4858,96.2891
2899.4500,96.2441
2900.4143,96.2034
2901.3784,96.1606
2902.3428,96.1004
2903.3069,96.0106
2904.2712,95.8943
2905.2354,95.7722
2906.1997,95.6719
2907.1638,95.6111
2908.1282,95.5866
2909.0923,95.5763
2910.0566,95.5539
2911.0208,95.5049
2911.9851,95.433
2912.9492,95.3538
2913.9136,95.2803
2914.8777,95.2132
2915.8420,95.1417
2916.8062,95.0542
2917.7705,94.9501
2918.7346,94.8427
2919.6990,94.7507
2920.6631,94.685
2921.6274,94.6385
2922.5916,94.5891
2923.5559,94.5119
2924.5200,94.3956
2925.4844,94.2513
2926.4485,94.1101
2927.4128,94.0085
2928.3770,93.9704
2929.3413,93.9954
2930.3054,94.0586
2931.2698,94.1225
2932.2339,94.1545
2933.1982,94.1413
2934.1624,94.0916
2935.1267,94.0276
2936.0908,93.9721
2937.0552,93.938
2938.0193,93.9277
2938.9836,93.9385
2939.9478,93.9698
2940.9121,94.0243
2941.8762,94.1047
2942.8406,94.2078
2943.8047,94.3231
2944.7690,94.4377
2945.7332,94.5429
2946.6975,94.6395
2947.6616,94.7352
2948.6260,94.8374
2949.5901,94.9469
2950.5544,95.0572
2951.5186,95.1598
2952.4829,95.2531
2953.4470,95.3457
2954.4114,95.4532
2955.3755,95.5883
2956.3398,95.7521
2957.3040,95.9318
2958.2683,96.1073
2959.2324,96.261
2960.1968,96.387
2961.1609,96.4904
2962.1252,96.5809
2963.0894,96.6628
2964.0537,96.7308
2965.0178,96.7734
2965.9822,96.7819
2966.9463,96.7593
2967.9106,96.7214
2968.8748,96.6898
2969.8391,96.681
2970.8032,96.6978
2971.7676,96.7291
2972.7317,96.7558
2973.6960,96.7618
2974.6602,96.7417
2975.6245,96.7028
2976.5886,96.6609
2977.5530,96.6329
2978.5171,96.6302
2979.4814,96.6552
2980.4456,96.7024
2981.4099,96.7619
2982.3740,96.8254
2983.3384,96.8895
2984.3025,96.9575
2985.2668,97.0368
2986.2310,97.1338
2987.1953,97.2489
2988.1594,97.374
2989.1238,97.4962
2990.0879,97.6048
2991.0522,97.6979
2992.0164,97.7839
2992.9807,97.8753
2993.9448,97.9792
2994.9092,98.0907
2995.8733,98.1953
2996.8376,98.2797
2997.8018,98.3443
2998.7661,98.4072
2999.7302,98.4952
3000.6946,98.6273
3001.6587,98.8
3002.6230,98.9857
3003.5872,99.1457
3004.5515,99.2528
3005.5156,99.3076
3006.4800,99.3388
3007.4441,99.3854
3008.4084,99.4742
3009.3726,99.6041
3010.3369,99.7476
3011.3010,99.8673
3012.2654,99.9383
3013.2295,99.962
3014.1938,99.9622
3015.1580,99.9678
3016.1223,99.9945
3017.0864,100.037
3018.0508,100.076
3019.0149,100.094
3019.9792,100.089
3020.9434,100.078
3021.9077,100.085
3022.8718,100.128
3023.8362,100.209
3024.8003,100.305
3025.7646,100.384
3026.7288,100.414
3027.6931,100.382
3028.6572,100.3
3029.6216,100.201
3030.5857,100.126
3031.5500,100.11
3032.5142,100.16
3033.4785,100.257
3034.4426,100.363
3035.4070,100.44
3036.3711,100.47
3037.3354,100.458
3038.2996,100.422
3039.2639,100.384
3040.2280,100.358
3041.1924,100.347
3042.1565,100.353
3043.1208,100.375
3044.0850,100.412
3045.0493,100.459
3046.0134,100.501
3046.9778,100.521
3047.9419,100.504
3048.9063,100.449
3049.8704,100.37
3050.8347,100.291
3051.7988,100.228
3052.7632,100.189
3053.7273,100.171
3054.6917,100.168
3055.6558,100.176
3056.6201,100.195
3057.5842,100.227
3058.5486,100.27
3059.5127,100.317
3060.4771,100.358
3061.4412,100.39
3062.4055,100.409
3063.3696,100.417
3064.3340,100.411
3065.2981,100.389
3066.2625,100.351
3067.2266,100.304
3068.1909,100.262
3069.1550,100.244
3070.1194,100.261
3071.0835,100.311
3072.0479,100.375
3073.0120,100.429
3073.9763,100.454
3074.9404,100.444
3075.9048,100.408
3076.8689,100.359
3077.8333,100.308
3078.7974,100.26
3079.7617,100.215
3080.7258,100.173
3081.6902,100.139
3082.6543,100.122
3083.6187,100.128
3084.5828,100.155
3085.5471,100.192
3086.5112,100.222
3087.4756,100.23
3088.4397,100.211
3089.4041,100.17
3090.3682,100.121
3091.3325,100.077
3092.2966,100.05
3093.2610,100.044
3094.2251,100.057
3095.1895,100.08
3096.1536,100.103
3097.1179,100.114
3098.0820,100.106
3099.0464,100.076
3100.0105,100.028
3100.9749,99.9735
3101.9390,99.9285
3102.9033,99.9064
3103.8674,99.9112
3104.8318,99.9334
3105.7959,99.9527
3106.7603,99.9473
3107.7244,99.9062
3108.6887,99.8366
3109.6528,99.7615
3110.6172,99.7075
3111.5813,99.6906
3112.5457,99.7096
3113.5098,99.7493
3114.4741,99.7927
3115.4382,99.8306
3116.4026,99.8639
3117.3667,99.8957
3118.3311,99.9228
3119.2952,99.9321
3120.2595,99.9082
3121.2236,99.8465
3122.1880,99.7618
3123.1521,99.6866
3124.1165,99.6551
3125.0806,99.6843
3126.0449,99.7619
3127.0090,99.8492
3127.9734,99.9012
3128.9375,99.8898
3129.9019,99.8195
3130.8660,99.7233
3131.8303,99.6429
3132.7944,99.6041
3133.7588,99.604
3134.7229,99.6174
3135.6873,99.6177
3136.6514,99.5953
3137.6157,99.5613
3138.5798,99.5349
3139.5442,99.5278
3140.5083,99.5359
3141.4727,99.5451
3142.4368,99.5432
3143.4011,99.5291
3144.3652,99.5114
3145.3296,99.4996
3146.2937,99.4962
3147.2581,99.4964
3148.2222,99.4927
3149.1865,99.4806
3150.1506,99.4593
3151.1150,99.4293
3152.0791,99.3897
3153.0435,99.3395
3154.0076,99.2806
3154.9719,99.2211
3155.9360,99.1728
3156.9004,99.1463
3157.8645,99.1449
3158.8289,99.1616
3159.7930,99.181
3160.7573,99.1858
3161.7214,99.1636
3162.6858,99.1131
3163.6499,99.0454
3164.6143,98.9794
3165.5784,98.9337
3166.5427,98.9173
3167.5068,98.9252
3168.4712,98.9406
3169.4353,98.9445
3170.3997,98.9261
3171.3638,98.8891
3172.3281,98.8485
3173.2922,98.8219
3174.2566,98.8188
3175.2207,98.835
3176.1851,98.854
3177.1492,98.8556
3178.1135,98.8266
3179.0776,98.7677
3180.0420,98.694
3181.0061,98.626
3181.9705,98.5803
3182.9346,98.5627
3183.8989,98.5672
3184.8630,98.5813
3185.8274,98.5932
3186.7915,98.5975
3187.7559,98.5953
3188.7200,98.5905
3189.6843,98.5848
3190.6484,98.5763
3191.6128,98.5609
3192.5769,98.5363
3193.5413,98.5032
3194.5054,98.4657
3195.4697,98.4284
3196.4338,98.3941
3197.3982,98.3638
3198.3623,98.3373
3199.3267,98.3149
3200.2908,98.2975
3201.2551,98.2868
3202.2192,98.2831
3203.1836,98.2849
3204.1477,98.2874
3205.1121,98.283
3206.0762,98.2627
3207.0405,98.2196
3208.0046,98.1535
3208.9690,98.0733
3209.9331,97.9952
3210.8975,97.9368
3211.8616,97.9082
3212.8259,97.9062
3213.7900,97.916
3214.7544,97.9185
3215.7185,97.9006
3216.6829,97.8617
3217.6470,97.8126
3218.6113,97.769
3219.5754,97.7432
3220.5398,97.7392
3221.5039,97.7514
3222.4683,97.7687
3223.4324,97.7788
3224.3967,97.7725
3225.3608,97.7469
3226.3252,97.7074
3227.2893,97.6658
3228.2537,97.6354
3229.2178,97.6226
3230.1821,97.6223
3231.1462,97.6196
3232.1106,97.5992
3233.0747,97.5567
3234.0391,97.5035
3235.0032,97.4619
3235.9675,97.4525
3236.9316,97.4824
3237.8960,97.5402
3238.8601,97.6018
3239.8245,97.6418
3240.7886,97.6437
3241.7529,97.6042
3242.7170,97.5312
3243.6814,97.4389
3244.6455,97.3432
3245.6099,97.2591
3246.5740,97.1982
3247.5383,97.1685
3248.5024,97.173
3249.4668,97.2097
3250.4309,97.2707
3251.3953,97.3419
3252.3594,97.4045
3253.3237,97.439
3254.2878,97.4312
3255.2522,97.3783
3256.2163,97.2908
3257.1807,97.1883
3258.1448,97.0921
3259.1091,97.0165
3260.0732,96.9649
3261.0376,96.9318
3262.0017,96.9088
3262.9661,96.8916
3263.9302,96.8825
3264.8945,96.886
3265.8586,96.9018
3266.8230,96.92
3267.7871,96.9232
3268.7515,96.8955
3269.7156,96.8323
3270.6799,96.7449
3271.6440,96.6554
3272.6084,96.5862
3273.5725,96.5493
3274.5369,96.5429
3275.5010,96.5548
3276.4653,96.571
3277.4294,96.5823
3278.3938,96.5856
3279.3579,96.5835
3280.3223,96.5824
3281.2864,96.5917
3282.2507,96.6213
3283.2148,96.6751
3284.1792,96.7446
3285.1433,96.8064
3286.1077,96.8294
3287.0718,96.7897
3288.0361,96.6852
3289.0002,96.5404
3289.9646,96.397
3290.9287,96.2944
3291.8931,96.252
3292.8572,96.2625
3293.8215,96.301
3294.7856,96.3398
3295.7500,96.3613
3296.7141,96.3614
3297.6785,96.3451
3298.6426,96.3207
3299.6069,96.2963
3300.5710,96.2794
3301.5354,96.2759
3302.4995,96.2866
3303.4639,96.3035
3304.4280,96.3096
3305.3923,96.2857
3306.3564,96.2227
3307.3208,96.1313
3308.2849,96.041
3309.2493,95.9869
3310.2134,95.9895
3311.1777,96.0419
3312.1418,96.1114
3313.1062,96.1548
3314.0703,96.1408
3315.0347,96.0649
3315.9988,95.952
3316.9631,95.8436
3317.9272,95.7783
3318.8916,95.7729
3319.8557,95.816
3320.8201,95.8739
3321.7842,95.9087
3322.7485,95.8974
3323.7126,95.8433
3324.6770,95.7718
3325.6411,95.7154
3326.6055,95.6958
3327.5696,95.7145
3328.5339,95.7564
3329.4980,95.8002
3330.4624,95.8281
3331.4265,95.8289
3332.3909,95.7963
3333.3550,95.7288
3334.3193,95.6329
3335.2834,95.5282
3336.2478,95.4455
3337.2119,95.4139
3338.1763,95.4448
3339.1404,95.5228
3340.1047,95.6116
3341.0688,95.672
3342.0332,95.6802
3342.9973,95.6379
3343.9617,95.5668
3344.9258,95.4943
3345.8901,95.4391
3346.8542,95.4059
3347.8186,95.3868
3348.7827,95.369
3349.7471,95.3417
3350.7112,95.301
3351.6755,95.2535
3352.6396,95.214
3353.6040,95.1985
3354.5681,95.2117
3355.5325,95.2375
3356.4966,95.2411
3357.4609,95.1871
3358.4250,95.0641
3359.3894,94.9006
3360.3535,94.7565
3361.3179,94.6944
3362.2820,94.745
3363.2463,94.8881
3364.2104,95.0601
3365.1748,95.1853
3366.1389,95.2119
3367.1033,95.1319
3368.0674,94.9753
3369.0317,94.7871
3369.9958,94.6065
3370.9602,94.4587
3371.9243,94.3589
3372.8887,94.3193
3373.8528,94.3492
3374.8171,94.449
3375.7813,94.6017
3376.7456,94.7721
3377.7097,94.9143
3378.6741,94.9889
3379.6382,94.9785
3380.6025,94.8943
3381.5667,94.77
3382.5310,94.6456
3383.4951,94.5512
3384.4595,94.4963
3385.4236,94.4714
3386.3879,94.4582
3387.3521,94.4427
3388.3164,94.4216
3389.2805,94.4015
3390.2449,94.3916
3391.2090,94.3968
3392.1733,94.4129
3393.1375,94.4277
3394.1018,94.4262
3395.0659,94.3979
3396.0303,94.343
3396.9944,94.2746
3397.9587,94.2148
3398.9229,94.1859
3399.8872,94.1988
3400.8513,94.2469
3401.8157,94.3086
3402.7798,94.3577
3403.7441,94.3761
3404.7083,94.3617
3405.6726,94.327
3406.6367,94.2909
3407.6011,94.2692
3408.5652,94.2685
3409.5295,94.2863
3410.4937,94.3138
3411.4580,94.3404
3412.4221,94.3577
3413.3865,94.3616
3414.3506,94.3531
3415.3149,94.3356
3416.2791,94.3112
3417.2434,94.2782
3418.2075,94.2314
3419.1719,94.1666
3420.1360,94.0863
3421.1003,94.0023
3422.0645,93.9318
3423.0288,93.8908
3423.9929,93.8878
3424.9573,93.9223
3425.9214,93.9842
3426.8857,94.0547
3427.8499,94.1091
3428.8142,94.1241
3429.7783,94.0875
3430.7427,94.0058
3431.7068,93.9049
3432.6711,93.8198
3433.6353,93.7796
3434.5996,93.7941
3435.5637,93.8485
3436.5281,93.9102
3437.4922,93.9415
3438.4565,93.9162
3439.4207,93.8309
3440.3850,93.7082
3441.3491,93.588
3442.3135,93.51
3443.2776,93.4966
3444.2419,93.5443
3445.2061,93.6279
3446.1704,93.7148
3447.1345,93.7821
3448.0989,93.8244
3449.0630,93.8481
3450.0273,93.8574
3450.9915,93.8501
3451.9558,93.8224
3452.9199,93.7802
3453.8843,93.7422
3454.8484,93.7311
3455.8127,93.7576
3456.7769,93.8116
3457.7412,93.8701
3458.7053,93.9147
3459.6697,93.9459
3460.6338,93.9799
3461.5981,94.032
3462.5623,94.0979
3463.5266,94.1511
3464.4907,94.1597
3465.4551,94.1094
3466.4192,94.0171
3467.3835,93.9242
3468.3477,93.8755
3469.3120,93.8975
3470.2761,93.9881
3471.2405,94.1199
3472.2046,94.2531
3473.1689,94.3485
3474.1331,94.3813
3475.0974,94.3492
3476.0615,94.2715
3477.0259,94.1794
3477.9900,94.1023
3478.9543,94.0573
3479.9185,94.0445
3480.8828,94.0498
3481.8469,94.0556
3482.8113,94.0525
3483.7754,94.0445
3484.7397,94.0456
3485.7039,94.07
3486.6682,94.1252
3487.6323,94.207
3488.5967,94.3003
3489.5608,94.3826
3490.5251,94.4319
3491.4893,94.4334
3492.4536,94.3851
3493.4177,94.3009
3494.3821,94.2093
3495.3462,94.1437
3496.3105,94.1269
3497.2747,94.1592
3498.2390,94.2212
3499.2031,94.2872
3500.1675,94.337
3501.1316,94.3619
3502.0959,94.3629
3503.0601,94.3455
3504.0244,94.3147
3504.9885,94.2755
3505.9529,94.2352
3506.9170,94.2043
3507.8813,94.1923
3508.8455,94.2003
3509.8098,94.2182
3510.7739,94.2303
3511.7383,94.2289
3512.7024,94.2213
3513.6667,94.2249
3514.6309,94.256
3515.5952,94.3188
3516.5593,94.4028
3517.5237,94.4874
3518.4878,94.5521
3519.4521,94.5836
3520.4163,94.5776
3521.3806,94.5388
3522.3447,94.4806
3523.3091,94.425
3524.2732,94.398
3525.2375,94.4197
3526.2017,94.4941
3527.1660,94.6047
3528.1301,94.7185
3529.0945,94.8011
3530.0586,94.8344
3531.0229,94.8249
3531.9871,94.7974
3532.9514,94.7815
3533.9155,94.7984
3534.8799,94.8501
3535.8440,94.9156
3536.8083,94.9608
3537.7725,94.9598
3538.7368,94.9126
3539.7009,94.8434
3540.6653,94.787
3541.6294,94.7722
3542.5938,94.811
3543.5579,94.8919
3544.5222,94.9817
3545.4863,95.0424
3546.4507,95.0556
3547.4148,95.0312
3548.3792,94.9929
3549.3433,94.9624
3550.3076,94.953
3551.2717,94.9692
3552.2361,95.0078
3553.2002,95.0593
3554.1646,95.1132
3555.1287,95.164
3556.0930,95.2125
3557.0571,95.2629
3558.0215,95.3188
3558.9856,95.3801
3559.9500,95.4423
3560.9141,95.4975
3561.8784,95.5361
3562.8425,95.5453
3563.8069,95.5085
3564.7710,95.4154
3565.7354,95.2886
3566.6995,95.2019
3567.6638,95.2315
3568.6279,95.3835
3569.5923,95.6033
3570.5564,95.8293
3571.5208,96.0162
3572.4849,96.137
3573.4492,96.1848
3574.4133,96.1752
3575.3777,96.1407
3576.3418,96.1136
3577.3062,96.1108
3578.2703,96.1316
3579.2346,96.1665
3580.1987,96.2071
3581.1631,96.25
3582.1272,96.2939
3583.0916,96.3381
3584.0557,96.3827
3585.0200,96.4333
3585.9841,96.5028
3586.9485,96.6015
3587.9126,96.72
3588.8770,96.8305
3589.8411,96.9092
3590.8054,96.9457
3591.7695,96.9378
3592.7339,96.8878
3593.6980,96.8043
3594.6624,96.7053
3595.6265,96.6163
3596.5908,96.562
3597.5549,96.5601
3598.5193,96.6186
3599.4834,96.7294
3600.4478,96.8648
3601.4119,96.989
3602.3762,97.0793
3603.3403,97.1346
3604.3047,97.1655
3605.2688,97.1779
3606.2332,97.164
3607.1973,97.1107
3608.1616,97.0267
3609.1257,96.9617
3610.0901,96.9868
3611.0542,97.1471
3612.0186,97.4235
3612.9827,97.7268
3613.9470,97.9374
3614.9111,97.9731
3615.8755,97.8384
3616.8396,97.6265
3617.8040,97.4833
3618.7681,97.5268
3619.7324,97.7508
3620.6965,98.0258
3621.6609,98.22
3622.6250,98.2824
3623.5894,98.2286
3624.5535,98.1032
3625.5178,97.9678
3626.4819,97.9044
3627.4463,97.9958
3628.4104,98.2342
3629.3748,98.4693
3630.3389,98.5647
3631.3032,98.5247
3632.2673,98.429
3633.2317,98.3533
3634.1958,98.343
3635.1602,98.4081
3636.1243,98.5278
3637.0886,98.6676
3638.0527,98.8
3639.0171,98.9157
3639.9812,99.0186
3640.9456,99.1147
3641.9097,99.2047
3642.8740,99.2841
3643.8381,99.3492
3644.8025,99.3995
3645.7666,99.4374
3646.7310,99.4673
3647.6951,99.4956
3648.6594,99.5338
3649.6235,99.5915
3650.5879,99.6669
3651.5520,99.7539
3652.5164,99.8473
3653.4805,99.9391
3654.4448,100.014
3655.4089,100.053
3656.3733,100.044
3657.3374,100.005
3658.3018,99.9729
3659.2659,99.9789
3660.2302,100.033
3661.1943,100.12
3662.1587,100.206
3663.1228,100.251
3664.0872,100.235
3665.0513,100.162
3666.0156,100.06
3666.9797,99.9717
3667.9441,99.949
3668.9082,100.027
3669.8726,100.19
3670.8367,100.38
3671.8010,100.561
3672.7651,100.734
3673.7295,100.896
3674.6936,101.004
3675.6580,100.987
3676.6221,100.839
3677.5864,100.643
3678.5505,100.485
3679.5149,100.403
3680.4790,100.401
3681.4434,100.467
3682.4075,100.582
3683.3718,100.725
3684.3359,100.874
3685.3003,101.009
3686.2644,101.099
3687.2288,101.104
3688.1929,100.998
3689.1572,100.825
3690.1213,100.701
3691.0857,100.701
3692.0498,100.81
3693.0142,100.979
3693.9783,101.164
3694.9426,101.327
3695.9067,101.441
3696.8711,101.491
3697.8352,101.478
3698.7996,101.417
3699.7637,101.341
3700.7280,101.283
3701.6921,101.262
3702.6565,101.272
3703.6206,101.291
3704.5850,101.298
3705.5491,101.283
3706.5134,101.244
3707.4775,101.183
3708.4419,101.109
3709.4060,101.062
3710.3704,101.101
3711.3345,101.249
3712.2988,101.441
3713.2629,101.587
3714.2273,101.643
3715.1914,101.605
3716.1558,101.488
3717.1199,101.319
3718.0842,101.137
3719.0483,100.984
3720.0127,100.899
3720.9768,100.902
3721.9412,100.988
3722.9053,101.132
3723.8696,101.289
3724.8337,101.407
3725.7981,101.451
3726.7622,101.419
3727.7266,101.342
3728.6907,101.261
3729.6550,101.214
3730.6191,101.235
3731.5835,101.337
3732.5476,101.508
3733.5120,101.676
3734.4761,101.731
3735.4404,101.629
3736.4045,101.448
3737.3689,101.285
3738.3330,101.175
3739.2974,101.106
3740.2615,101.051
3741.2258,100.983
3742.1899,100.892
3743.1543,100.803
3744.1184,100.781
3745.0828,100.881
3746.0469,101.09
3747.0112,101.354
3747.9753,101.614
3748.9397,101.812
3749.9038,101.882
3750.8682,101.806
3751.8323,101.663
3752.7966,101.538
3753.7607,101.447
3754.7251,101.37
3755.6892,101.289
3756.6536,101.208
3757.6177,101.156
3758.5820,101.176
3759.5461,101.283
3760.5105,101.446
3761.4746,101.612
3762.4390,101.734
3763.4031,101.784
3764.3674,101.755
3765.3315,101.663
3766.2959,101.549
3767.2600,101.469
3768.2244,101.468
3769.1885,101.558
3770.1528,101.708
3771.1169,101.86
3772.0813,101.964
3773.0454,102.002
3774.0098,101.98
3774.9739,101.92
3775.9382,101.854
3776.9023,101.814
3777.8667,101.817
3778.8308,101.848
3779.7952,101.866
3780.7593,101.837
3781.7236,101.767
3782.6877,101.693
3783.6521,101.661
3784.6162,101.693
3785.5806,101.767
3786.5447,101.827
3787.5090,101.821
3788.4731,101.741
3789.4375,101.618
3790.4016,101.508
3791.3660,101.454
3792.3301,101.476
3793.2944,101.559
3794.2585,101.663
3795.2229,101.739
3796.1870,101.747
3797.1514,101.676
3798.1155,101.542
3799.0798,101.393
3800.0439,101.299
3801.0083,101.32
3801.9724,101.453
3802.9368,101.622
3803.9009,101.743
3804.8652,101.773
3805.8293,101.721
3806.7937,101.649
3807.7578,101.632
3808.7222,101.702
3809.6863,101.831
3810.6506,101.969
3811.6147,102.069
3812.5791,102.098
3813.5432,102.037
3814.5076,101.884
3815.4717,101.67
3816.4360,101.445
3817.4001,101.259
3818.3645,101.159
3819.3286,101.207
3820.2930,101.439
3821.2571,101.804
3822.2214,102.162
3823.1855,102.396
3824.1499,102.467
3825.1140,102.397
3826.0784,102.232
3827.0425,102.029
3828.0068,101.842
3828.9709,101.71
3829.9353,101.654
3830.8994,101.674
3831.8638,101.755
3832.8279,101.864
3833.7922,101.955
3834.7563,101.978
3835.7207,101.9
3836.6848,101.721
3837.6492,101.496
3838.6133,101.314
3839.5776,101.229
3840.5417,101.237
3841.5061,101.299
3842.4702,101.388
3843.4346,101.492
3844.3987,101.609
3845.3630,101.731
3846.3271,101.848
3847.2915,101.948
3848.2556,102.02
3849.2200,102.048
3850.1841,102.007
3851.1484,101.857
3852.1125,101.581
3853.0769,101.288
3854.0410,101.158
3855.0054,101.219
3855.9695,101.379
3856.9338,101.572
3857.8979,101.768
3858.8623,101.955
3859.8264,102.122
3860.7908,102.245
3861.7549,102.286
3862.7192,102.214
3863.6833,102.038
3864.6477,101.813
3865.6118,101.593
3866.5762,101.406
3867.5403,101.258
3868.5046,101.16
3869.4688,101.138
3870.4331,101.227
3871.3972,101.429
3872.3616,101.69
3873.3257,101.923
3874.2900,102.065
3875.2542,102.093
3876.2185,102.027
3877.1826,101.909
3878.1470,101.785
3879.1111,101.697
3880.0754,101.652
3881.0396,101.627
3882.0039,101.597
3882.9680,101.568
3883.9324,101.586
3884.8965,101.692
3885.8608,101.878
3886.8250,102.079
3887.7893,102.214
3888.7534,102.224
3889.7178,102.089
3890.6819,101.852
3891.6462,101.619
3892.6104,101.499
3893.5747,101.523
3894.5388,101.648
3895.5032,101.811
3896.4673,101.955
3897.4316,102.032
3898.3958,102.001
3899.3601,101.843
3900.3242,101.586
3901.2886,101.306
3902.2527,101.101
3903.2170,101.048
3904.1812,101.155
3905.1455,101.362
3906.1096,101.592
3907.0740,101.793
3908.0381,101.946
3909.0024,102.054
3909.9666,102.123
3910.9309,102.152
3911.8950,102.127
3912.8594,102.034
3913.8235,101.875
3914.7878,101.688
3915.7520,101.546
3916.7163,101.523
3917.6804,101.633
3918.6448,101.807
3919.6089,101.938
3920.5732,101.958
3921.5374,101.867
3922.5017,101.718
3923.4658,101.584
3924.4302,101.514
3925.3943,101.502
3926.3586,101.511
3927.3228,101.508
3928.2871,101.493
3929.2512,101.493
3930.2156,101.541
3931.1797,101.645
3932.1440,101.781
3933.1082,101.906
3934.0725,101.992
3935.0366,102.031
3936.0010,102.027
3936.9651,101.982
3937.9294,101.898
3938.8936,101.786
3939.8579,101.67
3940.8220,101.585
3941.7864,101.561
3942.7505,101.604
3943.7148,101.69
3944.6790,101.785
3945.6433,101.863
3946.6074,101.913
3947.5718,101.933
3948.5359,101.929
3949.5002,101.906
3950.4644,101.871
3951.4287,101.834
3952.3928,101.804
3953.3572,101.781
3954.3213,101.758
3955.2856,101.725
3956.2500,101.678
3957.2141,101.629
3958.1785,101.603
3959.1426,101.62
3960.1069,101.683
3961.0710,101.763
3962.0354,101.814
3962.9995,101.803
3963.9639,101.732
3964.9280,101.64
3965.8923,101.581
3966.8564,101.586
3967.8208,101.651
3968.7849,101.741
3969.7493,101.81
3970.7134,101.835
3971.6777,101.826
3972.6418,101.812
3973.6062,101.818
3974.5703,101.843
3975.5347,101.864
3976.4988,101.856
3977.4631,101.813
3978.4272,101.75
3979.3916,101.695
3980.3557,101.676
3981.3201,101.701
3982.2842,101.764
3983.2485,101.842
3984.2126,101.907
3985.1770,101.937
3986.1411,101.924
3987.1055,101.872
3988.0696,101.803
3989.0339,101.742
3989.9980,101.708
3990.9624,101.696
3991.9265,101.685
3992.8909,101.649
3993.8550,101.577
3994.8193,101.484
3995.7834,101.408
3996.7478,101.382
3997.7119,101.42
3998.6763,101.504
3999.6404,101.604
4000.6047,101.688
4001.5688,101.742
4002.5332,101.77
4003.4973,101.782
4004.4617,101.789
4005.4258,101.789
4006.3901,101.783
4007.3542,101.772
4008.3186,101.769
4009.2827,101.787
4010.2471,101.829
4011.2112,101.887
4012.1755,101.933
4013.1396,101.942
4014.1040,101.897
4015.0681,101.807
4016.0325,101.7
4016.9966,101.616
4017.9609,101.587
4018.9250,101.62
4019.8894,101.694
4020.8535,101.766
4021.8179,101.792
4022.7820,101.745
4023.7463,101.627
4024.7104,101.475
4025.6748,101.346
4026.6389,101.293
4027.6033,101.339
4028.5674,101.469
4029.5317,101.633
4030.4958,101.771
4031.4602,101.843
4032.4243,101.843
4033.3887,101.801
4034.3528,101.757
4035.3171,101.74
4036.2813,101.752
4037.2456,101.775
4038.2097,101.793
4039.1741,101.809
4040.1382,101.84
4041.1025,101.908
4042.0667,102.013
4043.0310,102.126
4043.9951,102.201
4044.9595,102.201
4045.9236,102.122
4046.8879,101.99
4047.8521,101.85
4048.8164,101.74
4049.7805,101.681
4050.7449,101.668
4051.7090,101.688
4052.6733,101.721
4053.6375,101.751
4054.6018,101.773
4055.5659,101.785
4056.5303,101.792
4057.4944,101.799
4058.4587,101.81
4059.4229,101.823
4060.3872,101.835
4061.3513,101.84
4062.3157,101.838
4063.2798,101.827
4064.2441,101.803
4065.2083,101.759
4066.1726,101.685
4067.1367,101.584
4068.1011,101.474
4069.0652,101.391
4070.0295,101.371
4070.9937,101.429
4071.9580,101.546
4072.9221,101.677
4073.8865,101.772
4074.8506,101.803
4075.8149,101.774
4076.7791,101.717
4077.7434,101.667
4078.7075,101.65
4079.6719,101.67
4080.6360,101.717
4081.6003,101.778
4082.5645,101.842
4083.5288,101.902
4084.4929,101.954
4085.4573,101.989
4086.4214,102.001
4087.3857,101.987
4088.3499,101.95
4089.3142,101.901
4090.2783,101.851
4091.2427,101.811
4092.2068,101.785
4093.1711,101.769
4094.1353,101.752
4095.0996,101.726
4096.0640,101.692
4097.0278,101.662
4097.9922,101.655
4098.9565,101.684
4099.9209,101.749
4100.8848,101.828
4101.8491,101.886
4102.8135,101.892
4103.7778,101.839
4104.7417,101.746
4105.7061,101.655
4106.6704,101.608
4107.6348,101.629
4108.5986,101.711
4109.5630,101.818
4110.5273,101.903
4111.4917,101.929
4112.4556,101.883
4113.4199,101.783
4114.3843,101.672
4115.3486,101.595
4116.3125,101.583
4117.2769,101.638
4118.2412,101.741
4119.2056,101.857
4120.1694,101.954
4121.1338,102.015
4122.0981,102.039
4123.0625,102.036
4124.0264,102.025
4124.9907,102.02
4125.9551,102.03
4126.9194,102.058
4127.8833,102.093
4128.8477,102.121
4129.8120,102.122
4130.7764,102.087
4131.7402,102.023
4132.7046,101.958
4133.6689,101.927
4134.6333,101.954
4135.5972,102.038
4136.5615,102.15
4137.5259,102.248
4138.4902,102.294
4139.4541,102.282
4140.4185,102.229
4141.3828,102.166
4142.3472,102.121
4143.3110,102.101
4144.2754,102.098
4145.2397,102.095
4146.2041,102.08
4147.1680,102.048
4148.1323,102.001
4149.0967,101.942
4150.0610,101.878
4151.0249,101.824
4151.9893,101.794
4152.9536,101.802
4153.9180,101.85
4154.8818,101.922
4155.8462,101.989
4156.8105,102.024
4157.7749,102.015
4158.7388,101.969
4159.7031,101.91
4160.6675,101.863
4161.6318,101.84
4162.5957,101.841
4163.5601,101.858
4164.5244,101.891
4165.4888,101.951
4166.4526,102.054
4167.4170,102.197
4168.3813,102.351
4169.3457,102.464
4170.3096,102.485
4171.2739,102.392
4172.2383,102.213
4173.2026,102.012
4174.1665,101.859
4175.1309,101.796
4176.0952,101.828
4177.0596,101.926
4178.0234,102.047
4178.9878,102.149
4179.9521,102.202
4180.9165,102.192
4181.8804,102.12
4182.8447,102.006
4183.8091,101.884
4184.7734,101.79
4185.7373,101.754
4186.7017,101.781
4187.6660,101.851
4188.6304,101.936
4189.5942,102.005
4190.5586,102.045
4191.5229,102.055
4192.4873,102.041
4193.4512,102.012
4194.4155,101.977
4195.3799,101.943
4196.3442,101.914
4197.3081,101.892
4198.2725,101.87
4199.2368,101.846
4200.2012,101.823

##### Extended Information
[コメント情報]
試料名
コメント
測定者
所属
会社,北海道大学　大学院理学研究院

[データ情報]
作成日時,2025/08/18 18:32

データタイプ,等間隔データ
横軸,Wavenumber [cm-1]
縦軸,%T
スタート,499.473 cm-1
エンド,4200.2 cm-1
データ間隔,0.964233 cm-1
データ数,3839    

[測定情報]
機種名,FT/IR-4100typeA
シリアル番号,C207261016

付属品名,ATR PRO450-S
付属品シリアルNo.,A083961272
入射角,45 度

測定日時,2025/08/18 18:28

光源,標準光源
検出器,TGS
積算回数,64
分解,4 cm-1
ゼロフィリング,On
アポダイゼーション,Cosine
ゲイン,Auto (16)
アパーチャー,Auto (7.1 mm)
スキャンスピード,Auto (2 mm/sec)
フィルタ,Auto (30000 Hz)

