TITLE,
DATA TYPE,INFRARED SPECTRUM
ORIGIN,JASCO
OWNER,
DATE,24/04/20
TIME,15:48:20
SPECTROMETER/DATA SYSTEM,
LOCALE,1041
RESOLUTION,
DELTAX,0.964233
XUNITS,1/CM
YUNITS,TRANSMITTANCE
FIRSTX,  499.4729
LASTX, 4200.2010
NPOINTS,    3839
FIRSTY,    62.68340
MAXY,   102.63933
MINY,    -0.00000
XYDATA
499.4729,62.6834
500.4372,4.47695
501.4014,-1.17549E-038
502.3656,-1.17549E-038
503.3299,-1.17549E-038
504.2941,-1.17549E-038
505.2583,-1.17549E-038
506.2226,-1.17549E-038
507.1868,19.2899
508.1510,62.012
509.1153,85.2024
510.0795,94.2124
511.0437,93.6247
512.0080,87.6
512.9722,79.5367
513.9365,71.7285
514.9007,65.7536
515.8649,62.9703
516.8292,64.2802
517.7934,69.3924
518.7576,76.5967
519.7219,83.4831
520.6861,87.9555
521.6503,88.843
522.6146,86.0938
523.5788,80.7624
524.5430,74.7127
525.5073,69.8838
526.4715,67.4126
527.4357,67.2589
528.4000,68.5459
529.3642,70.2139
530.3284,71.5387
531.2927,72.3341
532.2569,72.8416
533.2211,73.42
534.1854,74.2311
535.1496,75.1208
536.1138,75.751
537.0781,75.8681
538.0423,75.4993
539.0065,74.9259
539.9708,74.4597
540.9350,74.2172
541.8992,74.0774
542.8635,73.8512
543.8277,73.5096
544.7919,73.2728
545.7562,73.4775
546.7204,74.3228
547.6846,75.6786
548.6489,77.0903
549.6131,77.9873
550.5773,77.9859
551.5416,77.0988
552.5058,75.7206
553.4700,74.4201
554.4343,73.688
555.3985,73.7542
556.3627,74.5084
557.3270,75.5334
558.2912,76.2711
559.2554,76.2846
560.2197,75.4847
561.1839,74.1834
562.1481,72.9416
563.1124,72.3011
564.0766,72.5318
565.0408,73.5134
566.0051,74.8054
566.9693,75.8714
567.9335,76.3347
568.8978,76.1217
569.8620,75.435
570.8262,74.6171
571.7905,74.0132
572.7547,73.877
573.7189,74.2998
574.6832,75.1471
575.6474,76.0603
576.6116,76.5956
577.5759,76.469
578.5401,75.7377
579.5043,74.7712
580.4686,74.0391
581.4328,73.8638
582.3970,74.2767
583.3613,75.0424
584.3255,75.8257
585.2897,76.3778
586.2540,76.6133
587.2182,76.5645
588.1824,76.3118
589.1467,75.9656
590.1109,75.6818
591.0751,75.6383
592.0394,75.9366
593.0036,76.4941
593.9678,77.0465
594.9321,77.2961
595.8963,77.1059
596.8605,76.603
597.8248,76.1143
598.7890,75.9641
599.7532,76.2548
600.7175,76.7875
601.6817,77.1905
602.6459,77.1625
603.6102,76.6526
604.5744,75.8677
605.5386,75.1331
606.5029,74.719
607.4671,74.7333
608.4313,75.1136
609.3956,75.6881
610.3598,76.2557
611.3240,76.6553
612.2883,76.814
613.2525,76.7639
614.2167,76.6261
615.1810,76.5624
616.1452,76.707
617.1094,77.0919
618.0737,77.6076
619.0379,78.0402
620.0021,78.1818
620.9664,77.951
621.9306,77.456
622.8948,76.97
623.8591,76.8021
624.8233,77.0928
625.7875,77.648
626.7518,77.9603
627.7160,77.464
628.6802,75.9016
629.6445,73.5816
630.6087,71.3358
631.5729,70.1416
632.5372,70.6071
633.5014,72.6367
634.4656,75.4886
635.4299,78.1833
636.3941,80.0072
637.3583,80.8047
638.3226,80.8987
639.2868,80.7541
640.2510,80.6614
641.2153,80.6502
642.1795,80.6241
643.1437,80.5461
644.1080,80.5076
645.0722,80.6441
646.0364,80.9985
647.0007,81.4583
647.9649,81.8176
648.9291,81.9148
649.8934,81.7383
650.8576,81.4169
651.8218,81.1145
652.7861,80.9304
653.7503,80.8742
654.7145,80.9042
655.6788,80.9778
656.6430,81.0772
657.6072,81.204
658.5715,81.3634
659.5357,81.5527
660.4999,81.7561
661.4642,81.9435
662.4284,82.0749
663.3926,82.1086
664.3569,82.0098
665.3211,81.7629
666.2853,81.4141
667.2496,81.1577
668.2138,81.3338
669.1780,82.0483
670.1423,82.9086
671.1065,83.5161
672.0707,83.7833
673.0350,83.795
673.9992,83.6818
674.9634,83.581
675.9277,83.5977
676.8919,83.7521
677.8561,83.9677
678.8204,84.1302
679.7846,84.171
680.7488,84.1095
681.7131,84.0342
682.6773,84.0421
683.6415,84.1769
684.6058,84.4076
685.5700,84.6553
686.5342,84.8416
687.4985,84.9292
688.4627,84.9331
689.4269,84.9026
690.3912,84.8886
691.3554,84.9163
692.3196,84.9786
693.2839,85.0484
694.2481,85.0992
695.2123,85.1215
696.1766,85.1266
697.1408,85.1357
698.1050,85.1634
699.0693,85.207
700.0335,85.251
700.9977,85.2843
701.9620,85.3178
702.9262,85.3858
703.8904,85.5253
704.8547,85.7426
705.8189,85.9919
706.7831,86.1862
707.7474,86.2437
708.7116,86.1429
709.6758,85.9501
710.6401,85.7965
711.6043,85.8125
712.5685,86.0545
713.5328,86.4698
714.4970,86.9259
715.4612,87.285
716.4255,87.4698
717.3897,87.485
718.3539,87.3954
719.3182,87.2851
720.2824,87.2165
721.2466,87.2121
722.2109,87.2642
723.1751,87.3557
724.1393,87.4647
725.1036,87.5555
726.0678,87.5754
727.0320,87.4754
727.9963,87.2469
728.9605,86.9447
729.9247,86.6684
730.8890,86.5107
731.8532,86.5078
732.8174,86.6254
733.7817,86.7875
734.7459,86.921
735.7101,86.9868
736.6744,86.9775
737.6386,86.8963
738.6028,86.7441
739.5671,86.527
740.5313,86.2734
741.4955,86.039
742.4598,85.8852
743.4240,85.8461
744.3882,85.9063
745.3525,86.0071
746.3167,86.0772
747.2809,86.0704
748.2452,85.9929
749.2094,85.9074
750.1736,85.911
751.1379,86.0868
752.1021,86.4466
753.0663,86.893
754.0306,87.2348
754.9948,87.2663
755.9590,86.8826
756.9233,86.1681
757.8875,85.3942
758.8517,84.9085
759.8160,84.9674
760.7802,85.6038
761.7444,86.6094
762.7087,87.6399
763.6729,88.3827
764.6371,88.6914
765.6014,88.6192
766.5656,88.349
767.5298,88.0796
768.4941,87.9384
769.4583,87.9601
770.4225,88.1209
771.3868,88.3892
772.3510,88.7523
773.3152,89.2066
774.2795,89.7283
775.2437,90.2572
776.2079,90.7136
777.1722,91.0396
778.1364,91.2361
779.1006,91.3625
780.0649,91.4948
781.0291,91.6702
781.9933,91.8598
782.9576,91.991
783.9218,92.0066
784.8860,91.9141
785.8503,91.7886
786.8145,91.724
787.7787,91.7696
788.7430,91.8962
789.7072,92.0177
790.6714,92.0507
791.6357,91.9719
792.5999,91.8345
793.5641,91.7359
794.5284,91.7625
795.4926,91.9466
796.4568,92.2556
797.4211,92.6106
798.3853,92.9194
799.3495,93.1062
800.3138,93.1335
801.2780,93.0133
802.2422,92.8065
803.2065,92.6058
804.1707,92.5025
805.1349,92.5476
806.0992,92.7281
807.0634,92.9729
808.0276,93.1881
808.9919,93.3029
809.9561,93.3027
810.9203,93.2297
811.8846,93.1529
812.8488,93.1258
813.8130,93.1552
814.7773,93.2004
815.7415,93.201
816.7057,93.1183
817.6700,92.9647
818.6342,92.8019
819.5984,92.7072
820.5627,92.7254
821.5269,92.8375
822.4911,92.9661
823.4554,93.0187
824.4196,92.9421
825.3839,92.7533
826.3481,92.5271
827.3123,92.3504
828.2766,92.2745
829.2408,92.2945
830.2050,92.3634
831.1693,92.4249
832.1335,92.4397
833.0977,92.393
834.0620,92.2853
835.0262,92.1243
835.9904,91.9248
836.9547,91.7129
837.9189,91.5236
838.8831,91.3842
839.8474,91.2934
840.8116,91.2148
841.7758,91.093
842.7401,90.8863
843.7043,90.5936
844.6685,90.2573
845.6328,89.9404
846.5970,89.6969
847.5612,89.5553
848.5255,89.5224
849.4897,89.5967
850.4539,89.7745
851.4182,90.0429
852.3824,90.3692
853.3466,90.7024
854.3109,90.9942
855.2751,91.225
856.2393,91.4156
857.2036,91.6123
858.1678,91.8551
859.1320,92.1518
860.0963,92.4763
861.0605,92.7899
862.0247,93.0682
862.9890,93.3116
863.9532,93.5357
864.9174,93.7511
865.8817,93.9521
866.8459,94.1212
867.8101,94.2452
868.7744,94.3287
869.7386,94.3963
870.7028,94.4816
871.6671,94.6084
872.6313,94.775
873.5955,94.9492
874.5598,95.082
875.5240,95.1352
876.4882,95.1104
877.4525,95.0565
878.4167,95.0442
879.3809,95.1157
880.3452,95.2435
881.3094,95.3332
882.2736,95.2788
883.2379,95.0387
884.2021,94.6785
885.1663,94.3457
886.1306,94.1878
887.0948,94.2661
888.0590,94.5235
889.0233,94.8276
889.9875,95.0557
890.9517,95.1614
891.9160,95.1784
892.8802,95.1711
893.8444,95.1744
894.8087,95.1697
895.7729,95.1114
896.7371,94.9766
897.7014,94.7989
898.6656,94.6587
899.6298,94.6403
900.5941,94.7834
901.5583,95.0619
902.5225,95.3968
903.4868,95.6921
904.4510,95.8734
905.4152,95.9106
906.3795,95.821
907.3437,95.6553
908.3079,95.4772
909.2722,95.3439
910.2364,95.2914
911.2006,95.3281
912.1649,95.4362
913.1291,95.5812
914.0933,95.7254
915.0576,95.8409
916.0218,95.9178
916.9860,95.9637
917.9503,95.9964
918.9145,96.0333
919.8787,96.0829
920.8430,96.1415
921.8072,96.1959
922.7714,96.2306
923.7357,96.2358
924.6999,96.2113
925.6641,96.1645
926.6284,96.1044
927.5926,96.036
928.5568,95.9589
929.5211,95.8716
930.4853,95.7773
931.4495,95.6847
932.4138,95.602
933.3780,95.5277
934.3422,95.4473
935.3065,95.3411
936.2707,95.1998
937.2349,95.0364
938.1992,94.8835
939.1634,94.776
940.1276,94.7282
941.0919,94.7245
942.0561,94.7297
943.0203,94.7146
943.9846,94.6786
944.9488,94.6508
945.9130,94.6685
946.8773,94.7465
947.8415,94.8598
948.8057,94.9528
949.7700,94.9706
950.7342,94.8913
951.6984,94.7371
952.6627,94.5603
953.6269,94.4135
954.5911,94.3268
955.5554,94.3018
956.5196,94.3224
957.4838,94.3676
958.4481,94.4173
959.4123,94.4503
960.3765,94.4446
961.3408,94.3851
962.3050,94.2761
963.2692,94.1461
964.2335,94.0368
965.1977,93.98
966.1619,93.9784
967.1262,94.0034
968.0904,94.0124
969.0546,93.973
970.0189,93.877
970.9831,93.7365
971.9473,93.5716
972.9116,93.3996
973.8758,93.2354
974.8400,93.0954
975.8043,92.9943
976.7685,92.9338
977.7327,92.8913
978.6970,92.824
979.6612,92.6937
980.6254,92.4992
981.5897,92.2908
982.5539,92.1514
983.5181,92.1513
984.4824,92.3046
985.4466,92.5571
986.4108,92.8131
987.3751,92.9859
988.3393,93.0387
989.3035,92.9928
990.2678,92.9028
991.2320,92.8201
992.1962,92.7689
993.1605,92.745
994.1247,92.7298
995.0889,92.7063
996.0532,92.6655
997.0174,92.6046
997.9816,92.5208
998.9459,92.408
999.9101,92.2569
1000.8743,92.0612
1001.8386,91.827
1002.8028,91.5818
1003.7670,91.375
1004.7313,91.2614
1005.6955,91.2686
1006.6597,91.3669
1007.6240,91.4633
1008.5882,91.4357
1009.5524,91.1944
1010.5167,90.7365
1011.4809,90.1548
1012.4451,89.5934
1013.4094,89.1742
1014.3736,88.9387
1015.3378,88.8426
1016.3021,88.7992
1017.2663,88.7409
1018.2305,88.6548
1019.1948,88.5748
1020.1590,88.5418
1021.1232,88.567
1022.0875,88.6206
1023.0517,88.651
1024.0160,88.6166
1024.9802,88.5092
1025.9445,88.3567
1026.9087,88.2067
1027.8729,88.102
1028.8372,88.0606
1029.8014,88.0662
1030.7656,88.0737
1031.7299,88.0254
1032.6941,87.8745
1033.6583,87.6057
1034.6226,87.2448
1035.5868,86.8522
1036.5510,86.5022
1037.5153,86.2574
1038.4795,86.1454
1039.4437,86.1493
1040.4080,86.214
1041.3722,86.2669
1042.3364,86.2437
1043.3007,86.1094
1044.2649,85.8653
1045.2291,85.544
1046.1934,85.1943
1047.1576,84.8654
1048.1218,84.5926
1049.0861,84.3892
1050.0503,84.2434
1051.0145,84.1232
1051.9788,83.9883
1052.9430,83.8077
1053.9072,83.5759
1054.8715,83.3191
1055.8357,83.0849
1056.7999,82.9195
1057.7642,82.8438
1058.7284,82.8419
1059.6926,82.8689
1060.6569,82.874
1061.6211,82.8255
1062.5853,82.7239
1063.5496,82.5983
1064.5138,82.4893
1065.4780,82.4297
1066.4423,82.4316
1067.4065,82.4844
1068.3707,82.5638
1069.3350,82.6432
1070.2992,82.7043
1071.2634,82.7424
1072.2277,82.7649
1073.1919,82.7861
1074.1561,82.8209
1075.1204,82.8782
1076.0846,82.9576
1077.0488,83.048
1078.0131,83.1315
1078.9773,83.1897
1079.9415,83.2129
1080.9058,83.2078
1081.8700,83.198
1082.8342,83.2172
1083.7985,83.2942
1084.7627,83.438
1085.7269,83.63
1086.6912,83.829
1087.6554,83.9901
1088.6196,84.0855
1089.5839,84.1193
1090.5481,84.1244
1091.5123,84.1453
1092.4766,84.2136
1093.4408,84.3324
1094.4050,84.4768
1095.3693,84.6096
1096.3335,84.702
1097.2977,84.7462
1098.2620,84.753
1099.2262,84.7405
1100.1904,84.7234
1101.1547,84.7111
1102.1189,84.7144
1103.0831,84.7503
1104.0474,84.8371
1105.0116,84.9812
1105.9758,85.1657
1106.9401,85.3535
1107.9043,85.5062
1108.8685,85.608
1109.8328,85.6777
1110.7970,85.7587
1111.7612,85.8934
1112.7255,86.1006
1113.6897,86.369
1114.6539,86.6702
1115.6182,86.9776
1116.5824,87.2786
1117.5466,87.5721
1118.5109,87.8607
1119.4751,88.1433
1120.4393,88.4153
1121.4036,88.6724
1122.3678,88.9114
1123.3320,89.1293
1124.2963,89.322
1125.2605,89.4871
1126.2247,89.6291
1127.1890,89.761
1128.1532,89.8992
1129.1174,90.055
1130.0817,90.232
1131.0459,90.4298
1132.0101,90.6515
1132.9744,90.904
1133.9386,91.1865
1134.9028,91.4756
1135.8671,91.7211
1136.8313,91.8627
1137.7955,91.8604
1138.7598,91.7219
1139.7240,91.505
1140.6882,91.2924
1141.6525,91.1528
1142.6167,91.1119
1143.5809,91.1499
1144.5452,91.2229
1145.5094,91.2923
1146.4736,91.3421
1147.4379,91.3773
1148.4021,91.4095
1149.3663,91.4455
1150.3306,91.4868
1151.2948,91.5385
1152.2590,91.6165
1153.2233,91.7447
1154.1875,91.9418
1155.1517,92.2074
1156.1160,92.5175
1157.0802,92.8338
1158.0444,93.121
1159.0087,93.3613
1159.9729,93.5573
1160.9371,93.7255
1161.9014,93.8846
1162.8656,94.0485
1163.8298,94.2248
1164.7941,94.4173
1165.7583,94.6264
1166.7225,94.847
1167.6868,95.0662
1168.6510,95.2647
1169.6152,95.4236
1170.5795,95.5333
1171.5437,95.5972
1172.5079,95.6287
1173.4722,95.6425
1174.4364,95.6462
1175.4006,95.6384
1176.3649,95.6135
1177.3291,95.5694
1178.2933,95.5121
1179.2576,95.4545
1180.2218,95.4099
1181.1860,95.3858
1182.1503,95.3827
1183.1145,95.3969
1184.0787,95.4255
1185.0430,95.4682
1186.0072,95.5256
1186.9714,95.5956
1187.9357,95.6722
1188.8999,95.7475
1189.8641,95.8164
1190.8284,95.8799
1191.7926,95.9433
1192.7568,96.0121
1193.7211,96.0879
1194.6853,96.1685
1195.6495,96.2513
1196.6138,96.3363
1197.5780,96.4266
1198.5422,96.5242
1199.5065,96.6249
1200.4707,96.7172
1201.4349,96.786
1202.3992,96.8195
1203.3634,96.8146
1204.3276,96.7778
1205.2919,96.7218
1206.2561,96.6608
1207.2203,96.607
1208.1846,96.5698
1209.1488,96.5549
1210.1130,96.5622
1211.0773,96.5832
1212.0415,96.6009
1213.0057,96.5943
1213.9700,96.5476
1214.9342,96.4583
1215.8984,96.3389
1216.8627,96.2113
1217.8269,96.096
1218.7911,96.0022
1219.7554,95.9252
1220.7196,95.8521
1221.6838,95.773
1222.6481,95.6907
1223.6123,95.6228
1224.5765,95.5951
1225.5408,95.6279
1226.5050,95.7239
1227.4692,95.8633
1228.4335,96.0106
1229.3977,96.1301
1230.3619,96.2018
1231.3262,96.2292
1232.2904,96.2351
1233.2546,96.2467
1234.2189,96.281
1235.1831,96.336
1236.1473,96.3942
1237.1116,96.433
1238.0758,96.4356
1239.0400,96.3983
1240.0043,96.3309
1240.9685,96.2527
1241.9327,96.1868
1242.8970,96.1519
1243.8612,96.155
1244.8254,96.1859
1245.7897,96.2181
1246.7539,96.2185
1247.7181,96.1622
1248.6824,96.0452
1249.6466,95.8883
1250.6108,95.7293
1251.5751,95.6079
1252.5393,95.5482
1253.5035,95.5488
1254.4678,95.5831
1255.4320,95.6114
1256.3962,95.6002
1257.3605,95.5421
1258.3247,95.4647
1259.2889,95.4208
1260.2532,95.4602
1261.2174,95.596
1262.1816,95.7887
1263.1459,95.9607
1264.1101,96.0347
1265.0743,95.9721
1266.0386,95.7868
1267.0028,95.5306
1267.9670,95.2618
1268.9313,95.0198
1269.8955,94.8187
1270.8597,94.6575
1271.8240,94.5328
1272.7882,94.4422
1273.7524,94.3778
1274.7167,94.3209
1275.6809,94.2469
1276.6451,94.14
1277.6094,94.0067
1278.5736,93.8764
1279.5378,93.7877
1280.5021,93.766
1281.4663,93.8094
1282.4305,93.8888
1283.3948,93.9625
1284.3590,93.9926
1285.3232,93.9576
1286.2875,93.856
1287.2517,93.7041
1288.2159,93.5294
1289.1802,93.3622
1290.1444,93.2251
1291.1086,93.1251
1292.0729,93.0521
1293.0371,92.9857
1294.0013,92.9065
1294.9656,92.8063
1295.9298,92.6911
1296.8940,92.5755
1297.8583,92.4732
1298.8225,92.3896
1299.7867,92.3229
1300.7510,92.2698
1301.7152,92.2327
1302.6794,92.2207
1303.6437,92.2459
1304.6079,92.3156
1305.5721,92.426
1306.5364,92.5629
1307.5006,92.7064
1308.4648,92.84
1309.4291,92.9566
1310.3933,93.0591
1311.3575,93.1557
1312.3218,93.2538
1313.2860,93.3557
1314.2502,93.4595
1315.2145,93.5644
1316.1787,93.6754
1317.1429,93.8029
1318.1072,93.9575
1319.0714,94.1424
1320.0356,94.3501
1320.9999,94.5667
1321.9641,94.7805
1322.9283,94.9871
1323.8926,95.1888
1324.8568,95.3893
1325.8210,95.5886
1326.7853,95.7829
1327.7495,95.9688
1328.7137,96.147
1329.6780,96.3218
1330.6422,96.4955
1331.6064,96.6612
1332.5707,96.8022
1333.5349,96.8988
1334.4991,96.9394
1335.4634,96.9293
1336.4276,96.8933
1337.3918,96.8692
1338.3561,96.8915
1339.3203,96.9712
1340.2845,97.0857
1341.2488,97.1935
1342.2130,97.2596
1343.1772,97.2705
1344.1415,97.2331
1345.1057,97.1659
1346.0699,97.0909
1347.0342,97.0263
1347.9984,96.9828
1348.9626,96.9627
1349.9269,96.9623
1350.8911,96.9748
1351.8553,96.9929
1352.8196,97.0095
1353.7838,97.0201
1354.7480,97.0238
1355.7123,97.0245
1356.6765,97.0278
1357.6407,97.0364
1358.6050,97.0466
1359.5692,97.0491
1360.5334,97.0345
1361.4977,97.0033
1362.4619,96.9715
1363.4261,96.9621
1364.3904,96.9873
1365.3546,97.0375
1366.3188,97.0883
1367.2831,97.113
1368.2473,97.0961
1369.2115,97.0392
1370.1758,96.9579
1371.1400,96.8712
1372.1042,96.7922
1373.0685,96.7266
1374.0327,96.6779
1374.9969,96.6505
1375.9612,96.6491
1376.9254,96.6739
1377.8896,96.722
1378.8539,96.7912
1379.8181,96.8827
1380.7823,96.9979
1381.7466,97.1318
1382.7108,97.2693
1383.6750,97.3898
1384.6393,97.4785
1385.6035,97.5393
1386.5677,97.601
1387.5320,97.7
1388.4962,97.8463
1389.4604,98.0077
1390.4247,98.1286
1391.3889,98.158
1392.3531,98.0695
1393.3174,97.8751
1394.2816,97.6298
1395.2458,97.4126
1396.2101,97.2833
1397.1743,97.2504
1398.1385,97.282
1399.1028,97.3396
1400.0670,97.4009
1401.0313,97.4567
1401.9955,97.5004
1402.9597,97.5218
1403.9240,97.5107
1404.8882,97.4667
1405.8524,97.4055
1406.8167,97.3515
1407.7809,97.3239
1408.7451,97.3271
1409.7094,97.3531
1410.6736,97.3866
1411.6378,97.4115
1412.6021,97.4154
1413.5663,97.3917
1414.5305,97.3386
1415.4948,97.2578
1416.4590,97.157
1417.4232,97.0556
1418.3875,96.9822
1419.3517,96.9557
1420.3159,96.966
1421.2802,96.9829
1422.2444,96.9791
1423.2086,96.9403
1424.1729,96.8649
1425.1371,96.7589
1426.1013,96.63
1427.0656,96.4829
1428.0298,96.321
1428.9940,96.1507
1429.9583,95.9844
1430.9225,95.8357
1431.8867,95.71
1432.8510,95.603
1433.8152,95.5086
1434.7794,95.4294
1435.7437,95.383
1436.7079,95.3926
1437.6721,95.4638
1438.6364,95.5763
1439.6006,95.703
1440.5648,95.8251
1441.5291,95.9323
1442.4933,96.0159
1443.4575,96.0678
1444.4218,96.0829
1445.3860,96.0621
1446.3502,96.0137
1447.3145,95.95
1448.2787,95.8828
1449.2429,95.8194
1450.2072,95.7603
1451.1714,95.7004
1452.1356,95.6295
1453.0999,95.5314
1454.0641,95.384
1455.0283,95.1699
1455.9926,94.9123
1456.9568,94.7159
1457.9210,94.69
1458.8853,94.8083
1459.8495,94.9597
1460.8137,95.0647
1461.7780,95.0929
1462.7422,95.0469
1463.7064,94.9625
1464.6707,94.9072
1465.6349,94.9424
1466.5991,95.0737
1467.5634,95.2557
1468.5276,95.4343
1469.4918,95.5698
1470.4561,95.6371
1471.4203,95.6285
1472.3845,95.5686
1473.3488,95.5164
1474.3130,95.5214
1475.2772,95.5805
1476.2415,95.657
1477.2057,95.7149
1478.1699,95.732
1479.1342,95.6979
1480.0984,95.6092
1481.0626,95.4678
1482.0269,95.2798
1482.9911,95.0544
1483.9553,94.8007
1484.9196,94.5232
1485.8838,94.2214
1486.8480,93.8947
1487.8123,93.5583
1488.7765,93.2569
1489.7407,93.0442
1490.7050,92.9349
1491.6692,92.8955
1492.6334,92.8817
1493.5977,92.865
1494.5619,92.8361
1495.5261,92.8067
1496.4904,92.8097
1497.4546,92.8851
1498.4188,93.0428
1499.3831,93.2474
1500.3473,93.4488
1501.3115,93.6131
1502.2758,93.7235
1503.2400,93.7701
1504.2042,93.7438
1505.1685,93.6436
1506.1327,93.5093
1507.0969,93.437
1508.0612,93.4791
1509.0254,93.5682
1509.9896,93.6218
1510.9539,93.6067
1511.9181,93.521
1512.8823,93.3773
1513.8466,93.2011
1514.8108,93.0291
1515.7750,92.8969
1516.7393,92.8145
1517.7035,92.753
1518.6677,92.6561
1519.6320,92.4738
1520.5962,92.2029
1521.5604,91.9005
1522.5247,91.6448
1523.4889,91.4759
1524.4531,91.3824
1525.4174,91.3319
1526.3816,91.3
1527.3458,91.2768
1528.3101,91.257
1529.2743,91.2288
1530.2385,91.171
1531.2028,91.0616
1532.1670,90.8963
1533.1312,90.7073
1534.0955,90.5505
1535.0597,90.4608
1536.0239,90.4292
1536.9882,90.419
1537.9524,90.3864
1538.9166,90.2957
1539.8809,90.1533
1540.8451,90.0454
1541.8093,90.0654
1542.7736,90.204
1543.7378,90.3973
1544.7020,90.6009
1545.6663,90.795
1546.6305,90.9715
1547.5947,91.1285
1548.5590,91.2718
1549.5232,91.4154
1550.4874,91.5766
1551.4517,91.765
1552.4159,91.9714
1553.3801,92.1692
1554.3444,92.3275
1555.3086,92.4256
1556.2728,92.468
1557.2371,92.5134
1558.2013,92.6912
1559.1655,93.0741
1560.1298,93.5434
1561.0940,93.9674
1562.0582,94.323
1563.0225,94.6322
1563.9867,94.9105
1564.9509,95.1593
1565.9152,95.3747
1566.8794,95.5625
1567.8436,95.7454
1568.8079,95.9517
1569.7721,96.1847
1570.7363,96.4126
1571.7006,96.5942
1572.6648,96.7061
1573.6290,96.7479
1574.5933,96.7421
1575.5575,96.7355
1576.5217,96.7813
1577.4860,96.8939
1578.4502,97.0378
1579.4144,97.1682
1580.3787,97.2592
1581.3429,97.3027
1582.3071,97.3021
1583.2714,97.2706
1584.2356,97.2276
1585.1998,97.1898
1586.1641,97.1628
1587.1283,97.1389
1588.0925,97.1025
1589.0568,97.0377
1590.0210,96.9341
1590.9852,96.7902
1591.9495,96.6118
1592.9137,96.4107
1593.8779,96.2002
1594.8422,95.9912
1595.8064,95.7853
1596.7706,95.5724
1597.7349,95.3334
1598.6991,95.0485
1599.6633,94.7073
1600.6276,94.3173
1601.5918,93.9067
1602.5560,93.5181
1603.5203,93.193
1604.4845,92.9559
1605.4487,92.8094
1606.4130,92.7408
1607.3772,92.7324
1608.3414,92.7674
1609.3057,92.8291
1610.2699,92.8998
1611.2341,92.9622
1612.1984,93.0014
1613.1626,93.002
1614.1268,92.9448
1615.0911,92.8111
1616.0553,92.6027
1617.0195,92.358
1617.9838,92.1229
1618.9480,91.9056
1619.9122,91.6762
1620.8765,91.3963
1621.8407,91.0465
1622.8049,90.6468
1623.7692,90.2535
1624.7334,89.9153
1625.6976,89.631
1626.6619,89.3604
1627.6261,89.0695
1628.5903,88.7618
1629.5546,88.4687
1630.5188,88.2171
1631.4830,88.0077
1632.4473,87.8185
1633.4115,87.6221
1634.3757,87.4086
1635.3400,87.2075
1636.3042,87.0735
1637.2684,87.0264
1638.2327,87.0392
1639.1969,87.0825
1640.1611,87.1442
1641.1254,87.22
1642.0896,87.3048
1643.0538,87.3948
1644.0181,87.4997
1644.9823,87.6538
1645.9465,87.9006
1646.9108,88.2381
1647.8750,88.5977
1648.8392,88.9127
1649.8035,89.1707
1650.7677,89.4093
1651.7319,89.7059
1652.6962,90.1482
1653.6604,90.7177
1654.6246,91.2609
1655.5889,91.6882
1656.5531,92.0219
1657.5173,92.3026
1658.4816,92.5519
1659.4458,92.7805
1660.4100,93.0021
1661.3743,93.2379
1662.3385,93.5029
1663.3027,93.787
1664.2670,94.061
1665.2312,94.3029
1666.1954,94.5118
1667.1597,94.706
1668.1239,94.9139
1669.0881,95.1559
1670.0524,95.4258
1671.0166,95.6962
1671.9808,95.9491
1672.9451,96.1902
1673.9093,96.4364
1674.8735,96.6966
1675.8378,96.9586
1676.8020,97.1956
1677.7662,97.3851
1678.7305,97.52
1679.6947,97.6035
1680.6589,97.6435
1681.6232,97.6591
1682.5874,97.6942
1683.5516,97.8104
1684.5159,98.0248
1685.4801,98.2757
1686.4443,98.4938
1687.4086,98.6565
1688.3728,98.7731
1689.3370,98.86
1690.3013,98.9294
1691.2655,98.9868
1692.2297,99.0322
1693.1940,99.0625
1694.1582,99.0745
1695.1224,99.0681
1696.0867,99.0491
1697.0509,99.0313
1698.0151,99.0326
1698.9794,99.0653
1699.9436,99.1256
1700.9078,99.1959
1701.8721,99.2602
1702.8363,99.3148
1703.8005,99.3667
1704.7648,99.4264
1705.7290,99.4991
1706.6932,99.5799
1707.6575,99.6555
1708.6217,99.7136
1709.5859,99.7493
1710.5502,99.7639
1711.5144,99.7599
1712.4786,99.7375
1713.4429,99.6953
1714.4071,99.6345
1715.3713,99.5692
1716.3356,99.5322
1717.2998,99.5578
1718.2640,99.6458
1719.2283,99.7634
1720.1925,99.8804
1721.1567,99.9838
1722.1210,100.071
1723.0852,100.141
1724.0494,100.19
1725.0137,100.217
1725.9779,100.22
1726.9421,100.204
1727.9064,100.176
1728.8706,100.139
1729.8348,100.1
1730.7991,100.062
1731.7633,100.034
1732.7275,100.03
1733.6918,100.056
1734.6560,100.101
1735.6202,100.142
1736.5845,100.169
1737.5487,100.184
1738.5129,100.195
1739.4772,100.212
1740.4414,100.242
1741.4056,100.281
1742.3699,100.321
1743.3341,100.351
1744.2983,100.363
1745.2626,100.354
1746.2268,100.317
1747.1910,100.253
1748.1553,100.176
1749.1195,100.118
1750.0837,100.116
1751.0480,100.18
1752.0122,100.286
1752.9764,100.398
1753.9407,100.489
1754.9049,100.552
1755.8691,100.589
1756.8334,100.611
1757.7976,100.629
1758.7618,100.643
1759.7261,100.648
1760.6903,100.644
1761.6545,100.635
1762.6188,100.631
1763.5830,100.636
1764.5472,100.643
1765.5115,100.639
1766.4757,100.61
1767.4399,100.55
1768.4042,100.465
1769.3684,100.374
1770.3326,100.307
1771.2969,100.291
1772.2611,100.339
1773.2253,100.434
1774.1896,100.544
1775.1538,100.64
1776.1180,100.709
1777.0823,100.748
1778.0465,100.76
1779.0107,100.755
1779.9750,100.748
1780.9392,100.755
1781.9034,100.783
1782.8677,100.826
1783.8319,100.871
1784.7961,100.903
1785.7604,100.912
1786.7246,100.895
1787.6888,100.855
1788.6531,100.794
1789.6173,100.72
1790.5815,100.643
1791.5458,100.587
1792.5100,100.571
1793.4742,100.6
1794.4385,100.651
1795.4027,100.7
1796.3669,100.724
1797.3312,100.717
1798.2954,100.682
1799.2596,100.637
1800.2239,100.606
1801.1881,100.607
1802.1523,100.642
1803.1166,100.695
1804.0808,100.745
1805.0450,100.781
1806.0093,100.797
1806.9735,100.797
1807.9377,100.791
1808.9020,100.79
1809.8662,100.801
1810.8304,100.83
1811.7947,100.872
1812.7589,100.919
1813.7231,100.959
1814.6874,100.985
1815.6516,100.994
1816.6158,100.988
1817.5801,100.974
1818.5443,100.962
1819.5085,100.956
1820.4728,100.958
1821.4370,100.968
1822.4012,100.982
1823.3655,100.995
1824.3297,101
1825.2939,100.987
1826.2582,100.951
1827.2224,100.897
1828.1866,100.842
1829.1509,100.81
1830.1151,100.823
1831.0793,100.877
1832.0436,100.951
1833.0078,101.016
1833.9720,101.057
1834.9363,101.07
1835.9005,101.068
1836.8647,101.065
1837.8290,101.07
1838.7932,101.08
1839.7574,101.083
1840.7217,101.068
1841.6859,101.032
1842.6501,100.985
1843.6144,100.945
1844.5786,100.934
1845.5428,100.954
1846.5071,100.994
1847.4713,101.041
1848.4355,101.087
1849.3998,101.129
1850.3640,101.166
1851.3282,101.194
1852.2925,101.211
1853.2567,101.211
1854.2209,101.197
1855.1852,101.176
1856.1494,101.156
1857.1136,101.144
1858.0779,101.144
1859.0421,101.155
1860.0063,101.172
1860.9706,101.189
1861.9348,101.197
1862.8990,101.187
1863.8633,101.152
1864.8275,101.087
1865.7917,101.001
1866.7560,100.915
1867.7202,100.863
1868.6844,100.869
1869.6487,100.93
1870.6129,101.014
1871.5771,101.09
1872.5414,101.139
1873.5056,101.159
1874.4698,101.158
1875.4341,101.146
1876.3983,101.132
1877.3625,101.121
1878.3268,101.116
1879.2910,101.118
1880.2552,101.126
1881.2195,101.139
1882.1837,101.149
1883.1479,101.152
1884.1122,101.142
1885.0764,101.12
1886.0406,101.094
1887.0049,101.072
1887.9691,101.064
1888.9333,101.07
1889.8976,101.085
1890.8618,101.093
1891.8260,101.083
1892.7903,101.053
1893.7545,101.007
1894.7188,100.96
1895.6830,100.927
1896.6472,100.92
1897.6115,100.938
1898.5757,100.974
1899.5399,101.015
1900.5042,101.051
1901.4684,101.074
1902.4326,101.082
1903.3969,101.077
1904.3611,101.062
1905.3253,101.04
1906.2896,101.015
1907.2538,100.99
1908.2180,100.971
1909.1823,100.961
1910.1465,100.963
1911.1107,100.974
1912.0750,100.984
1913.0392,100.984
1914.0034,100.965
1914.9677,100.924
1915.9319,100.87
1916.8961,100.817
1917.8604,100.779
1918.8246,100.761
1919.7888,100.757
1920.7531,100.755
1921.7173,100.749
1922.6815,100.743
1923.6458,100.749
1924.6100,100.776
1925.5742,100.823
1926.5385,100.877
1927.5027,100.921
1928.4669,100.944
1929.4312,100.944
1930.3954,100.932
1931.3596,100.923
1932.3239,100.927
1933.2881,100.948
1934.2523,100.98
1935.2166,101.011
1936.1808,101.034
1937.1450,101.042
1938.1093,101.034
1939.0735,101.013
1940.0377,100.982
1941.0020,100.949
1941.9662,100.925
1942.9304,100.918
1943.8947,100.932
1944.8589,100.961
1945.8231,100.994
1946.7874,101.026
1947.7516,101.051
1948.7158,101.071
1949.6801,101.089
1950.6443,101.104
1951.6085,101.117
1952.5728,101.122
1953.5370,101.119
1954.5012,101.107
1955.4655,101.091
1956.4297,101.075
1957.3939,101.064
1958.3582,101.061
1959.3224,101.067
1960.2866,101.079
1961.2509,101.093
1962.2151,101.099
1963.1793,101.091
1964.1436,101.069
1965.1078,101.04
1966.0720,101.017
1967.0363,101.014
1968.0005,101.036
1968.9647,101.073
1969.9290,101.111
1970.8932,101.132
1971.8574,101.131
1972.8217,101.112
1973.7859,101.091
1974.7501,101.082
1975.7144,101.092
1976.6786,101.12
1977.6428,101.155
1978.6071,101.184
1979.5713,101.2
1980.5355,101.2
1981.4998,101.19
1982.4640,101.173
1983.4282,101.155
1984.3925,101.139
1985.3567,101.126
1986.3209,101.115
1987.2852,101.106
1988.2494,101.097
1989.2136,101.087
1990.1779,101.076
1991.1421,101.067
1992.1063,101.063
1993.0706,101.067
1994.0348,101.076
1994.9990,101.086
1995.9633,101.091
1996.9275,101.091
1997.8917,101.088
1998.8560,101.087
1999.8202,101.091
2000.7844,101.1
2001.7487,101.108
2002.7129,101.109
2003.6771,101.103
2004.6414,101.091
2005.6056,101.08
2006.5698,101.074
2007.5341,101.074
2008.4983,101.078
2009.4625,101.079
2010.4268,101.074
2011.3910,101.06
2012.3552,101.037
2013.3195,101.006
2014.2837,100.973
2015.2479,100.946
2016.2122,100.937
2017.1764,100.951
2018.1406,100.986
2019.1049,101.029
2020.0691,101.065
2021.0333,101.082
2021.9976,101.077
2022.9618,101.056
2023.9260,101.03
2024.8903,101.01
2025.8545,101.001
2026.8187,101.004
2027.7830,101.013
2028.7472,101.024
2029.7114,101.03
2030.6757,101.028
2031.6399,101.015
2032.6041,100.992
2033.5684,100.963
2034.5326,100.934
2035.4968,100.912
2036.4611,100.902
2037.4253,100.905
2038.3895,100.915
2039.3538,100.925
2040.3180,100.931
2041.2822,100.931
2042.2465,100.927
2043.2107,100.925
2044.1749,100.927
2045.1392,100.935
2046.1034,100.949
2047.0676,100.962
2048.0320,100.972
2048.9961,100.973
2049.9604,100.967
2050.9246,100.955
2051.8889,100.942
2052.8530,100.933
2053.8174,100.928
2054.7815,100.925
2055.7458,100.921
2056.7100,100.913
2057.6743,100.902
2058.6384,100.889
2059.6028,100.877
2060.5669,100.87
2061.5313,100.865
2062.4954,100.863
2063.4597,100.862
2064.4238,100.862
2065.3882,100.863
2066.3523,100.864
2067.3167,100.863
2068.2808,100.858
2069.2451,100.849
2070.2092,100.836
2071.1736,100.823
2072.1377,100.812
2073.1021,100.806
2074.0662,100.805
2075.0305,100.805
2075.9946,100.807
2076.9590,100.809
2077.9231,100.808
2078.8875,100.807
2079.8516,100.803
2080.8159,100.799
2081.7800,100.794
2082.7444,100.789
2083.7085,100.786
2084.6729,100.784
2085.6370,100.786
2086.6013,100.792
2087.5654,100.806
2088.5298,100.826
2089.4939,100.848
2090.4583,100.868
2091.4224,100.881
2092.3867,100.883
2093.3508,100.877
2094.3152,100.866
2095.2793,100.852
2096.2437,100.84
2097.2078,100.827
2098.1721,100.814
2099.1362,100.801
2100.1006,100.787
2101.0647,100.777
2102.0291,100.772
2102.9932,100.776
2103.9575,100.786
2104.9216,100.801
2105.8860,100.815
2106.8501,100.826
2107.8145,100.831
2108.7786,100.828
2109.7429,100.821
2110.7070,100.811
2111.6714,100.803
2112.6355,100.8
2113.5999,100.806
2114.5640,100.823
2115.5283,100.847
2116.4924,100.87
2117.4568,100.884
2118.4209,100.88
2119.3853,100.859
2120.3494,100.826
2121.3137,100.793
2122.2778,100.767
2123.2422,100.749
2124.2063,100.737
2125.1707,100.725
2126.1348,100.714
2127.0991,100.708
2128.0632,100.714
2129.0276,100.732
2129.9917,100.759
2130.9561,100.783
2131.9202,100.798
2132.8845,100.799
2133.8486,100.787
2134.8130,100.768
2135.7771,100.747
2136.7415,100.729
2137.7056,100.717
2138.6699,100.715
2139.6340,100.724
2140.5984,100.745
2141.5625,100.772
2142.5269,100.798
2143.4910,100.816
2144.4553,100.823
2145.4194,100.822
2146.3838,100.816
2147.3479,100.809
2148.3123,100.801
2149.2764,100.789
2150.2407,100.774
2151.2048,100.758
2152.1692,100.744
2153.1333,100.738
2154.0977,100.738
2155.0618,100.741
2156.0261,100.743
2156.9902,100.738
2157.9546,100.726
2158.9187,100.711
2159.8831,100.695
2160.8472,100.683
2161.8115,100.678
2162.7756,100.68
2163.7400,100.687
2164.7041,100.696
2165.6685,100.704
2166.6326,100.708
2167.5969,100.708
2168.5610,100.707
2169.5254,100.709
2170.4895,100.714
2171.4539,100.724
2172.4180,100.733
2173.3823,100.738
2174.3464,100.738
2175.3108,100.735
2176.2749,100.732
2177.2393,100.733
2178.2034,100.738
2179.1677,100.745
2180.1318,100.751
2181.0962,100.75
2182.0603,100.74
2183.0247,100.723
2183.9888,100.699
2184.9531,100.674
2185.9172,100.652
2186.8816,100.637
2187.8457,100.631
2188.8101,100.632
2189.7742,100.637
2190.7385,100.641
2191.7026,100.642
2192.6670,100.641
2193.6311,100.642
2194.5955,100.649
2195.5596,100.666
2196.5239,100.689
2197.4880,100.714
2198.4524,100.73
2199.4165,100.734
2200.3809,100.724
2201.3450,100.705
2202.3093,100.684
2203.2734,100.67
2204.2378,100.667
2205.2019,100.675
2206.1663,100.688
2207.1304,100.697
2208.0947,100.695
2209.0588,100.679
2210.0232,100.654
2210.9873,100.632
2211.9517,100.621
2212.9158,100.626
2213.8801,100.642
2214.8442,100.66
2215.8086,100.67
2216.7727,100.669
2217.7371,100.662
2218.7012,100.655
2219.6655,100.655
2220.6296,100.664
2221.5940,100.675
2222.5581,100.682
2223.5225,100.681
2224.4866,100.673
2225.4509,100.663
2226.4150,100.652
2227.3794,100.645
2228.3435,100.638
2229.3079,100.632
2230.2720,100.624
2231.2363,100.617
2232.2004,100.612
2233.1648,100.611
2234.1289,100.615
2235.0933,100.624
2236.0574,100.634
2237.0217,100.643
2237.9858,100.646
2238.9502,100.64
2239.9143,100.628
2240.8787,100.61
2241.8428,100.592
2242.8071,100.578
2243.7712,100.571
2244.7356,100.57
2245.6997,100.574
2246.6641,100.58
2247.6282,100.585
2248.5925,100.585
2249.5566,100.58
2250.5210,100.57
2251.4851,100.561
2252.4495,100.56
2253.4136,100.569
2254.3779,100.587
2255.3420,100.607
2256.3064,100.619
2257.2705,100.618
2258.2349,100.603
2259.1990,100.582
2260.1633,100.561
2261.1274,100.549
2262.0918,100.547
2263.0559,100.553
2264.0203,100.565
2264.9844,100.58
2265.9487,100.592
2266.9128,100.599
2267.8772,100.596
2268.8413,100.583
2269.8057,100.564
2270.7698,100.548
2271.7341,100.542
2272.6982,100.55
2273.6626,100.57
2274.6267,100.591
2275.5911,100.605
2276.5552,100.605
2277.5195,100.593
2278.4836,100.574
2279.4480,100.558
2280.4121,100.55
2281.3765,100.552
2282.3406,100.557
2283.3049,100.56
2284.2690,100.557
2285.2334,100.544
2286.1975,100.525
2287.1619,100.504
2288.1260,100.484
2289.0903,100.468
2290.0544,100.457
2291.0188,100.45
2291.9829,100.445
2292.9473,100.44
2293.9114,100.432
2294.8757,100.424
2295.8398,100.418
2296.8042,100.417
2297.7683,100.423
2298.7327,100.432
2299.6968,100.44
2300.6611,100.438
2301.6252,100.426
2302.5896,100.406
2303.5537,100.388
2304.5181,100.382
2305.4822,100.39
2306.4465,100.409
2307.4106,100.425
2308.3750,100.428
2309.3391,100.417
2310.3035,100.396
2311.2676,100.376
2312.2319,100.362
2313.1960,100.351
2314.1604,100.337
2315.1245,100.314
2316.0889,100.28
2317.0530,100.243
2318.0173,100.207
2318.9814,100.175
2319.9458,100.147
2320.9099,100.122
2321.8743,100.11
2322.8384,100.129
2323.8027,100.198
2324.7668,100.32
2325.7312,100.476
2326.6953,100.63
2327.6597,100.742
2328.6238,100.784
2329.5881,100.754
2330.5522,100.675
2331.5166,100.585
2332.4807,100.516
2333.4451,100.485
2334.4092,100.489
2335.3735,100.514
2336.3376,100.539
2337.3020,100.546
2338.2661,100.523
2339.2305,100.471
2340.1946,100.4
2341.1589,100.331
2342.1230,100.28
2343.0874,100.258
2344.0515,100.26
2345.0159,100.273
2345.9800,100.287
2346.9443,100.301
2347.9084,100.321
2348.8728,100.354
2349.8369,100.406
2350.8013,100.476
2351.7654,100.556
2352.7297,100.617
2353.6938,100.618
2354.6582,100.534
2355.6223,100.389
2356.5867,100.247
2357.5508,100.157
2358.5151,100.117
2359.4792,100.082
2360.4436,100.017
2361.4077,99.9376
2362.3721,99.8969
2363.3362,99.9263
2364.3005,99.9974
2365.2646,100.039
2366.2290,99.9962
2367.1931,99.8805
2368.1575,99.7633
2369.1216,99.7287
2370.0859,99.8215
2371.0500,100.024
2372.0144,100.269
2372.9785,100.482
2373.9429,100.61
2374.9070,100.641
2375.8713,100.598
2376.8354,100.525
2377.7998,100.463
2378.7639,100.435
2379.7283,100.448
2380.6924,100.492
2381.6567,100.551
2382.6208,100.61
2383.5852,100.659
2384.5493,100.693
2385.5137,100.711
2386.4778,100.715
2387.4421,100.709
2388.4063,100.698
2389.3706,100.689
2390.3347,100.687
2391.2991,100.694
2392.2632,100.708
2393.2275,100.721
2394.1917,100.729
2395.1560,100.73
2396.1201,100.727
2397.0845,100.727
2398.0486,100.735
2399.0129,100.75
2399.9771,100.766
2400.9414,100.779
2401.9055,100.782
2402.8699,100.775
2403.8340,100.761
2404.7983,100.744
2405.7625,100.728
2406.7268,100.716
2407.6909,100.71
2408.6553,100.708
2409.6194,100.709
2410.5837,100.713
2411.5479,100.718
2412.5122,100.728
2413.4763,100.742
2414.4407,100.761
2415.4048,100.783
2416.3691,100.803
2417.3333,100.814
2418.2976,100.817
2419.2617,100.812
2420.2261,100.806
2421.1902,100.802
2422.1545,100.802
2423.1187,100.804
2424.0830,100.807
2425.0471,100.806
2426.0115,100.804
2426.9756,100.803
2427.9399,100.805
2428.9041,100.811
2429.8684,100.819
2430.8325,100.826
2431.7969,100.829
2432.7610,100.827
2433.7253,100.822
2434.6895,100.819
2435.6538,100.823
2436.6179,100.835
2437.5823,100.855
2438.5464,100.877
2439.5107,100.892
2440.4749,100.895
2441.4392,100.884
2442.4033,100.863
2443.3677,100.841
2444.3318,100.828
2445.2961,100.828
2446.2603,100.839
2447.2246,100.856
2448.1887,100.874
2449.1531,100.89
2450.1172,100.904
2451.0815,100.919
2452.0457,100.933
2453.0100,100.944
2453.9741,100.95
2454.9385,100.949
2455.9026,100.942
2456.8669,100.932
2457.8311,100.924
2458.7954,100.919
2459.7595,100.92
2460.7239,100.926
2461.6880,100.936
2462.6523,100.946
2463.6165,100.956
2464.5808,100.963
2465.5449,100.965
2466.5093,100.964
2467.4734,100.96
2468.4377,100.956
2469.4019,100.951
2470.3662,100.947
2471.3303,100.943
2472.2947,100.941
2473.2588,100.94
2474.2231,100.942
2475.1873,100.948
2476.1516,100.959
2477.1157,100.97
2478.0801,100.98
2479.0442,100.985
2480.0085,100.984
2480.9727,100.98
2481.9370,100.981
2482.9011,100.992
2483.8655,101.015
2484.8296,101.046
2485.7939,101.078
2486.7581,101.099
2487.7224,101.104
2488.6865,101.093
2489.6509,101.071
2490.6150,101.046
2491.5793,101.028
2492.5435,101.023
2493.5078,101.032
2494.4719,101.053
2495.4363,101.08
2496.4004,101.108
2497.3647,101.131
2498.3289,101.146
2499.2932,101.15
2500.2573,101.147
2501.2217,101.138
2502.1858,101.129
2503.1501,101.121
2504.1143,101.118
2505.0786,101.12
2506.0427,101.123
2507.0071,101.125
2507.9712,101.124
2508.9355,101.121
2509.8997,101.121
2510.8640,101.127
2511.8281,101.138
2512.7925,101.151
2513.7566,101.163
2514.7209,101.17
2515.6851,101.172
2516.6494,101.172
2517.6135,101.17
2518.5779,101.166
2519.5420,101.16
2520.5063,101.15
2521.4705,101.137
2522.4348,101.126
2523.3989,101.118
2524.3633,101.115
2525.3274,101.117
2526.2917,101.122
2527.2559,101.128
2528.2202,101.136
2529.1843,101.148
2530.1487,101.164
2531.1128,101.181
2532.0771,101.194
2533.0413,101.198
2534.0056,101.19
2534.9697,101.174
2535.9341,101.155
2536.8982,101.141
2537.8625,101.135
2538.8267,101.137
2539.7910,101.141
2540.7551,101.145
2541.7195,101.15
2542.6836,101.157
2543.6479,101.167
2544.6121,101.177
2545.5764,101.181
2546.5405,101.177
2547.5049,101.165
2548.4690,101.151
2549.4333,101.141
2550.3975,101.136
2551.3618,101.134
2552.3259,101.13
2553.2903,101.123
2554.2544,101.116
2555.2188,101.113
2556.1829,101.115
2557.1472,101.12
2558.1113,101.122
2559.0757,101.115
2560.0398,101.101
2561.0042,101.087
2561.9683,101.078
2562.9326,101.078
2563.8967,101.085
2564.8611,101.095
2565.8252,101.107
2566.7896,101.12
2567.7537,101.137
2568.7180,101.155
2569.6821,101.17
2570.6465,101.179
2571.6106,101.18
2572.5750,101.176
2573.5391,101.171
2574.5034,101.168
2575.4675,101.166
2576.4319,101.16
2577.3960,101.146
2578.3604,101.126
2579.3245,101.104
2580.2888,101.089
2581.2529,101.084
2582.2173,101.089
2583.1814,101.099
2584.1458,101.108
2585.1099,101.114
2586.0742,101.115
2587.0383,101.112
2588.0027,101.104
2588.9668,101.092
2589.9312,101.08
2590.8953,101.073
2591.8596,101.075
2592.8237,101.091
2593.7881,101.12
2594.7522,101.155
2595.7166,101.189
2596.6807,101.214
2597.6450,101.225
2598.6091,101.222
2599.5735,101.207
2600.5376,101.184
2601.5020,101.163
2602.4661,101.153
2603.4304,101.159
2604.3945,101.182
2605.3589,101.212
2606.3230,101.236
2607.2874,101.242
2608.2515,101.227
2609.2158,101.197
2610.1799,101.164
2611.1443,101.139
2612.1084,101.129
2613.0728,101.134
2614.0369,101.149
2615.0012,101.169
2615.9653,101.188
2616.9297,101.203
2617.8938,101.208
2618.8582,101.202
2619.8223,101.189
2620.7866,101.173
2621.7507,101.16
2622.7151,101.154
2623.6792,101.154
2624.6436,101.159
2625.6077,101.165
2626.5720,101.173
2627.5361,101.185
2628.5005,101.203
2629.4646,101.223
2630.4290,101.239
2631.3931,101.245
2632.3574,101.236
2633.3215,101.212
2634.2859,101.181
2635.2500,101.152
2636.2144,101.135
2637.1785,101.137
2638.1428,101.155
2639.1069,101.184
2640.0713,101.213
2641.0354,101.233
2641.9998,101.235
2642.9639,101.222
2643.9282,101.198
2644.8923,101.175
2645.8567,101.16
2646.8208,101.16
2647.7852,101.171
2648.7493,101.183
2649.7136,101.184
2650.6777,101.168
2651.6421,101.133
2652.6062,101.09
2653.5706,101.053
2654.5347,101.035
2655.4990,101.043
2656.4631,101.073
2657.4275,101.114
2658.3916,101.155
2659.3560,101.186
2660.3201,101.202
2661.2844,101.206
2662.2485,101.198
2663.2129,101.181
2664.1770,101.158
2665.1414,101.133
2666.1055,101.112
2667.0698,101.105
2668.0339,101.114
2668.9983,101.135
2669.9624,101.158
2670.9268,101.17
2671.8909,101.159
2672.8552,101.127
2673.8193,101.08
2674.7837,101.03
2675.7478,100.989
2676.7122,100.963
2677.6763,100.954
2678.6406,100.963
2679.6047,100.984
2680.5691,101.014
2681.5332,101.045
2682.4976,101.069
2683.4617,101.081
2684.4260,101.079
2685.3901,101.067
2686.3545,101.052
2687.3186,101.039
2688.2830,101.033
2689.2471,101.034
2690.2114,101.039
2691.1755,101.042
2692.1399,101.04
2693.1040,101.032
2694.0684,101.019
2695.0325,101.009
2695.9968,101.007
2696.9609,101.019
2697.9253,101.042
2698.8894,101.065
2699.8538,101.076
2700.8179,101.067
2701.7822,101.037
2702.7463,100.996
2703.7107,100.957
2704.6748,100.933
2705.6392,100.927
2706.6033,100.935
2707.5676,100.948
2708.5317,100.959
2709.4961,100.964
2710.4602,100.966
2711.4246,100.968
2712.3887,100.973
2713.3530,100.978
2714.3171,100.98
2715.2815,100.977
2716.2456,100.966
2717.2100,100.95
2718.1741,100.93
2719.1384,100.912
2720.1025,100.899
2721.0669,100.898
2722.0310,100.909
2722.9954,100.929
2723.9595,100.947
2724.9238,100.952
2725.8879,100.939
2726.8523,100.914
2727.8164,100.888
2728.7808,100.872
2729.7449,100.872
2730.7092,100.882
2731.6733,100.894
2732.6377,100.898
2733.6018,100.895
2734.5662,100.89
2735.5303,100.887
2736.4946,100.889
2737.4587,100.891
2738.4231,100.892
2739.3872,100.893
2740.3516,100.903
2741.3157,100.928
2742.2800,100.97
2743.2441,101.017
2744.2085,101.056
2745.1726,101.071
2746.1370,101.057
2747.1011,101.015
2748.0654,100.957
2749.0295,100.894
2749.9939,100.839
2750.9580,100.798
2751.9224,100.775
2752.8865,100.77
2753.8508,100.774
2754.8149,100.781
2755.7793,100.785
2756.7434,100.787
2757.7078,100.795
2758.6719,100.814
2759.6362,100.844
2760.6003,100.875
2761.5647,100.889
2762.5288,100.875
2763.4932,100.833
2764.4573,100.779
2765.4216,100.739
2766.3857,100.729
2767.3501,100.753
2768.3142,100.797
2769.2786,100.841
2770.2427,100.865
2771.2070,100.858
2772.1711,100.822
2773.1355,100.768
2774.0996,100.71
2775.0640,100.663
2776.0281,100.64
2776.9924,100.646
2777.9565,100.678
2778.9209,100.722
2779.8850,100.757
2780.8494,100.769
2781.8135,100.754
2782.7778,100.719
2783.7419,100.682
2784.7063,100.654
2785.6704,100.642
2786.6348,100.645
2787.5989,100.66
2788.5632,100.683
2789.5273,100.708
2790.4917,100.728
2791.4558,100.732
2792.4202,100.715
2793.3843,100.676
2794.3486,100.626
2795.3127,100.582
2796.2771,100.556
2797.2412,100.551
2798.2056,100.561
2799.1697,100.573
2800.1340,100.578
2801.0981,100.573
2802.0625,100.559
2803.0266,100.543
2803.9910,100.531
2804.9551,100.527
2805.9194,100.533
2806.8835,100.547
2807.8479,100.563
2808.8120,100.575
2809.7764,100.579
2810.7405,100.57
2811.7048,100.552
2812.6689,100.527
2813.6333,100.498
2814.5974,100.466
2815.5618,100.433
2816.5259,100.4
2817.4902,100.372
2818.4543,100.351
2819.4187,100.337
2820.3828,100.33
2821.3472,100.325
2822.3113,100.32
2823.2756,100.314
2824.2397,100.31
2825.2041,100.305
2826.1682,100.298
2827.1326,100.288
2828.0967,100.274
2829.0610,100.261
2830.0251,100.252
2830.9895,100.245
2831.9536,100.238
2832.9180,100.222
2833.8821,100.192
2834.8464,100.146
2835.8105,100.087
2836.7749,100.018
2837.7390,99.9449
2838.7034,99.8736
2839.6675,99.8116
2840.6318,99.7664
2841.5959,99.7424
2842.5603,99.7357
2843.5244,99.7321
2844.4888,99.7124
2845.4529,99.6611
2846.4172,99.5763
2847.3813,99.4718
2848.3457,99.3703
2849.3098,99.2906
2850.2742,99.2365
2851.2383,99.1954
2852.2026,99.1465
2853.1667,99.0748
2854.1311,98.9806
2855.0952,98.8798
2856.0596,98.7942
2857.0237,98.7389
2857.9880,98.714
2858.9521,98.7048
2859.9165,98.6909
2860.8806,98.6582
2861.8450,98.6071
2862.8091,98.5528
2863.7734,98.5162
2864.7375,98.5115
2865.7019,98.5361
2866.6660,98.5708
2867.6304,98.5901
2868.5945,98.5781
2869.5588,98.5392
2870.5229,98.4974
2871.4873,98.4835
2872.4514,98.5174
2873.4158,98.5977
2874.3799,98.7039
2875.3442,98.8091
2876.3083,98.8946
2877.2727,98.957
2878.2368,99.0048
2879.2012,99.0493
2880.1653,99.0972
2881.1296,99.1495
2882.0938,99.2037
2883.0581,99.2568
2884.0222,99.3055
2884.9866,99.3438
2885.9507,99.3637
2886.9150,99.3589
2887.8792,99.3299
2888.8435,99.2861
2889.8076,99.2427
2890.7720,99.2125
2891.7361,99.1991
2892.7004,99.1956
2893.6646,99.1891
2894.6289,99.1681
2895.5930,99.1288
2896.5574,99.0759
2897.5215,99.0186
2898.4858,98.9658
2899.4500,98.9226
2900.4143,98.89
2901.3784,98.8667
2902.3428,98.8505
2903.3069,98.8382
2904.2712,98.8246
2905.2354,98.802
2906.1997,98.7629
2907.1638,98.7035
2908.1282,98.6279
2909.0923,98.5472
2910.0566,98.4743
2911.0208,98.4162
2911.9851,98.368
2912.9492,98.3149
2913.9136,98.2401
2914.8777,98.1346
2915.8420,98.0048
2916.8062,97.8698
2917.7705,97.7537
2918.7346,97.6732
2919.6990,97.6305
2920.6631,97.6131
2921.6274,97.601
2922.5916,97.5762
2923.5559,97.5305
2924.5200,97.4671
2925.4844,97.3968
2926.4485,97.3313
2927.4128,97.2788
2928.3770,97.2419
2929.3413,97.2204
2930.3054,97.214
2931.2698,97.2239
2932.2339,97.2521
2933.1982,97.3
2934.1624,97.3672
2935.1267,97.452
2936.0908,97.5515
2937.0552,97.6605
2938.0193,97.7702
2938.9836,97.8686
2939.9478,97.9432
2940.9121,97.9859
2941.8762,97.9969
2942.8406,97.9848
2943.8047,97.9613
2944.7690,97.9361
2945.7332,97.9127
2946.6975,97.8886
2947.6616,97.8588
2948.6260,97.8183
2949.5901,97.7631
2950.5544,97.6908
2951.5186,97.6011
2952.4829,97.4986
2953.4470,97.3943
2954.4114,97.3043
2955.3755,97.2439
2956.3398,97.2207
2957.3040,97.2304
2958.2683,97.2598
2959.2324,97.2949
2960.1968,97.3295
2961.1609,97.3681
2962.1252,97.4234
2963.0894,97.5078
2964.0537,97.6256
2965.0178,97.7697
2965.9822,97.9234
2966.9463,98.0666
2967.9106,98.1834
2968.8748,98.2674
2969.8391,98.3248
2970.8032,98.3715
2971.7676,98.4271
2972.7317,98.506
2973.6960,98.6104
2974.6602,98.7289
2975.6245,98.8422
2976.5886,98.9324
2977.5530,98.992
2978.5171,99.0262
2979.4814,99.049
2980.4456,99.0754
2981.4099,99.1142
2982.3740,99.166
2983.3384,99.225
2984.3025,99.2821
2985.2668,99.3283
2986.2310,99.3572
2987.1953,99.3675
2988.1594,99.3647
2989.1238,99.3607
2990.0879,99.3696
2991.0522,99.4
2992.0164,99.4489
2992.9807,99.5003
2993.9448,99.5314
2994.9092,99.5236
2995.8733,99.4713
2996.8376,99.3862
2997.8018,99.2926
2998.7661,99.2183
2999.7302,99.1842
3000.6946,99.1973
3001.6587,99.2483
3002.6230,99.315
3003.5872,99.3702
3004.5515,99.3924
3005.5156,99.3739
3006.4800,99.3235
3007.4441,99.2617
3008.4084,99.2104
3009.3726,99.1832
3010.3369,99.1798
3011.3010,99.1875
3012.2654,99.1893
3013.2295,99.1735
3014.1938,99.14
3015.1580,99.1002
3016.1223,99.0712
3017.0864,99.0659
3018.0508,99.0865
3019.0149,99.1218
3019.9792,99.153
3020.9434,99.1628
3021.9077,99.1442
3022.8718,99.1029
3023.8362,99.0528
3024.8003,99.0069
3025.7646,98.9703
3026.7288,98.9393
3027.6931,98.9066
3028.6572,98.8693
3029.6216,98.8312
3030.5857,98.8001
3031.5500,98.7804
3032.5142,98.7682
3033.4785,98.7532
3034.4426,98.7262
3035.4070,98.6874
3036.3711,98.6475
3037.3354,98.6214
3038.2996,98.6173
3039.2639,98.6293
3040.2280,98.6385
3041.1924,98.6239
3042.1565,98.5756
3043.1208,98.5016
3044.0850,98.4241
3045.0493,98.367
3046.0134,98.3424
3046.9778,98.345
3047.9419,98.3568
3048.9063,98.359
3049.8704,98.3423
3050.8347,98.3108
3051.7988,98.2769
3052.7632,98.2522
3053.7273,98.241
3054.6917,98.2389
3055.6558,98.2359
3056.6201,98.2216
3057.5842,98.1897
3058.5486,98.1411
3059.5127,98.0838
3060.4771,98.0313
3061.4412,97.9973
3062.4055,97.9901
3063.3696,98.0074
3064.3340,98.0371
3065.2981,98.063
3066.2625,98.0739
3067.2266,98.0684
3068.1909,98.0533
3069.1550,98.0358
3070.1194,98.0174
3071.0835,97.994
3072.0479,97.9615
3073.0120,97.9224
3073.9763,97.8865
3074.9404,97.8652
3075.9048,97.8633
3076.8689,97.8745
3077.8333,97.8861
3078.7974,97.8862
3079.7617,97.8709
3080.7258,97.8444
3081.6902,97.8137
3082.6543,97.784
3083.6187,97.7563
3084.5828,97.7308
3085.5471,97.7093
3086.5112,97.6967
3087.4756,97.6973
3088.4397,97.7124
3089.4041,97.7384
3090.3682,97.7684
3091.3325,97.7949
3092.2966,97.8116
3093.2610,97.8144
3094.2251,97.8017
3095.1895,97.7738
3096.1536,97.7326
3097.1179,97.6813
3098.0820,97.6239
3099.0464,97.5665
3100.0105,97.5181
3100.9749,97.489
3101.9390,97.487
3102.9033,97.5108
3103.8674,97.5469
3104.8318,97.5722
3105.7959,97.5649
3106.7603,97.516
3107.7244,97.4365
3108.6887,97.3541
3109.6528,97.2998
3110.6172,97.2931
3111.5813,97.3326
3112.5457,97.3981
3113.5098,97.461
3114.4741,97.4971
3115.4382,97.4963
3116.4026,97.4638
3117.3667,97.415
3118.3311,97.3668
3119.2952,97.3287
3120.2595,97.2993
3121.2236,97.2671
3122.1880,97.2163
3123.1521,97.1363
3124.1165,97.0297
3125.0806,96.9148
3126.0449,96.8203
3127.0090,96.7724
3127.9734,96.7816
3128.9375,96.8367
3129.9019,96.909
3130.8660,96.966
3131.8303,96.9868
3132.7944,96.9707
3133.7588,96.9351
3134.7229,96.903
3135.6873,96.8894
3136.6514,96.8939
3137.6157,96.9028
3138.5798,96.8984
3139.5442,96.8674
3140.5083,96.8069
3141.4727,96.7236
3142.4368,96.6302
3143.4011,96.5409
3144.3652,96.4678
3145.3296,96.4173
3146.2937,96.3892
3147.2581,96.3771
3148.2222,96.3717
3149.1865,96.3653
3150.1506,96.3553
3151.1150,96.3438
3152.0791,96.3327
3153.0435,96.3193
3154.0076,96.296
3154.9719,96.2557
3155.9360,96.2003
3156.9004,96.1447
3157.8645,96.1117
3158.8289,96.1191
3159.7930,96.1659
3160.7573,96.2282
3161.7214,96.2688
3162.6858,96.2574
3163.6499,96.187
3164.6143,96.0784
3165.5784,95.9681
3166.5427,95.8884
3167.5068,95.851
3168.4712,95.8449
3169.4353,95.8452
3170.3997,95.8282
3171.3638,95.7821
3172.3281,95.7091
3173.2922,95.6215
3174.2566,95.536
3175.2207,95.4689
3176.1851,95.4328
3177.1492,95.4329
3178.1135,95.4632
3179.0776,95.5079
3180.0420,95.5478
3181.0061,95.5694
3181.9705,95.5701
3182.9346,95.5558
3183.8989,95.5319
3184.8630,95.4965
3185.8274,95.4415
3186.7915,95.3625
3187.7559,95.2693
3188.7200,95.1864
3189.6843,95.1401
3190.6484,95.1398
3191.6128,95.1687
3192.5769,95.1912
3193.5413,95.1754
3194.5054,95.1141
3195.4697,95.0292
3196.4338,94.9565
3197.3982,94.9203
3198.3623,94.9184
3199.3267,94.9271
3200.2908,94.9212
3201.2551,94.8934
3202.2192,94.8572
3203.1836,94.8348
3204.1477,94.8405
3205.1121,94.8717
3206.0762,94.9127
3207.0405,94.9455
3208.0046,94.9575
3208.9690,94.9419
3209.9331,94.8959
3210.8975,94.8201
3211.8616,94.7218
3212.8259,94.6175
3213.7900,94.5298
3214.7544,94.4792
3215.7185,94.4747
3216.6829,94.5112
3217.6470,94.573
3218.6113,94.641
3219.5754,94.6973
3220.5398,94.729
3221.5039,94.7293
3222.4683,94.699
3223.4324,94.6468
3224.3967,94.5854
3225.3608,94.5249
3226.3252,94.4687
3227.2893,94.4147
3228.2537,94.3631
3229.2178,94.3222
3230.1821,94.3064
3231.1462,94.3242
3232.1106,94.3672
3233.0747,94.4085
3234.0391,94.4168
3235.0032,94.3749
3235.9675,94.2911
3236.9316,94.1927
3237.8960,94.1089
3238.8601,94.0541
3239.8245,94.0243
3240.7886,94.0069
3241.7529,93.9941
3242.7170,93.9874
3243.6814,93.9929
3244.6455,94.0107
3245.6099,94.0319
3246.5740,94.0441
3247.5383,94.0404
3248.5024,94.024
3249.4668,94.0027
3250.4309,93.9804
3251.3953,93.9526
3252.3594,93.9112
3253.3237,93.8547
3254.2878,93.7941
3255.2522,93.7497
3256.2163,93.7393
3257.1807,93.7664
3258.1448,93.8182
3259.1091,93.873
3260.0732,93.9125
3261.0376,93.9294
3262.0017,93.9282
3262.9661,93.9178
3263.9302,93.9051
3264.8945,93.8912
3265.8586,93.8739
3266.8230,93.8511
3267.7871,93.8244
3268.7515,93.8004
3269.7156,93.7884
3270.6799,93.7977
3271.6440,93.8321
3272.6084,93.8861
3273.5725,93.9437
3274.5369,93.9838
3275.5010,93.9903
3276.4653,93.9617
3277.4294,93.9128
3278.3938,93.8666
3279.3579,93.8404
3280.3223,93.8359
3281.2864,93.8385
3282.2507,93.8279
3283.2148,93.7917
3284.1792,93.7332
3285.1433,93.6686
3286.1077,93.6166
3287.0718,93.5888
3288.0361,93.5858
3289.0002,93.6004
3289.9646,93.6231
3290.9287,93.6454
3291.8931,93.6608
3292.8572,93.6638
3293.8215,93.6519
3294.7856,93.6288
3295.7500,93.6054
3296.7141,93.5961
3297.6785,93.6112
3298.6426,93.6497
3299.6069,93.6972
3300.5710,93.7319
3301.5354,93.7348
3302.4995,93.6982
3303.4639,93.6288
3304.4280,93.5438
3305.3923,93.4636
3306.3564,93.4057
3307.3208,93.3799
3308.2849,93.3866
3309.2493,93.4172
3310.2134,93.4556
3311.1777,93.4829
3312.1418,93.484
3313.1062,93.4547
3314.0703,93.4038
3315.0347,93.3503
3315.9988,93.3138
3316.9631,93.3037
3317.9272,93.3153
3318.8916,93.3333
3319.8557,93.3429
3320.8201,93.3391
3321.7842,93.3296
3322.7485,93.3282
3323.7126,93.3447
3324.6770,93.3768
3325.6411,93.4109
3326.6055,93.4299
3327.5696,93.4238
3328.5339,93.3958
3329.4980,93.3615
3330.4624,93.3413
3331.4265,93.3507
3332.3909,93.3928
3333.3550,93.4565
3334.3193,93.5214
3335.2834,93.5679
3336.2478,93.5876
3337.2119,93.5887
3338.1763,93.5921
3339.1404,93.6205
3340.1047,93.687
3341.0688,93.7883
3342.0332,93.9072
3342.9973,94.0204
3343.9617,94.109
3344.9258,94.1646
3345.8901,94.1902
3346.8542,94.1962
3347.8186,94.1953
3348.7827,94.1961
3349.7471,94.1995
3350.7112,94.1982
3351.6755,94.1801
3352.6396,94.1363
3353.6040,94.0689
3354.5681,93.9945
3355.5325,93.94
3356.4966,93.9308
3357.4609,93.9781
3358.4250,94.0722
3359.3894,94.1859
3360.3535,94.2866
3361.3179,94.3517
3362.2820,94.3782
3363.2463,94.3837
3364.2104,94.3956
3365.1748,94.4357
3366.1389,94.5074
3367.1033,94.5938
3368.0674,94.6684
3369.0317,94.7115
3369.9958,94.7232
3370.9602,94.7242
3371.9243,94.7429
3372.8887,94.7981
3373.8528,94.8864
3374.8171,94.983
3375.7813,95.0546
3376.7456,95.078
3377.7097,95.0517
3378.6741,94.9968
3379.6382,94.9456
3380.6025,94.9274
3381.5667,94.9574
3382.5310,95.0332
3383.4951,95.1385
3384.4595,95.2521
3385.4236,95.3554
3386.3879,95.4378
3387.3521,95.4949
3388.3164,95.5249
3389.2805,95.5261
3390.2449,95.4986
3391.2090,95.4492
3392.1733,95.3952
3393.1375,95.36
3394.1018,95.3621
3395.0659,95.4036
3396.0303,95.4668
3396.9944,95.5233
3397.9587,95.5517
3398.9229,95.5521
3399.8872,95.5467
3400.8513,95.5671
3401.8157,95.6349
3402.7798,95.7496
3403.7441,95.8902
3404.7083,96.0267
3405.6726,96.1335
3406.6367,96.1954
3407.6011,96.2069
3408.5652,96.1707
3409.5295,96.0975
3410.4937,96.0085
3411.4580,95.9328
3412.4221,95.8969
3413.3865,95.9116
3414.3506,95.9656
3415.3149,96.0316
3416.2791,96.0828
3417.2434,96.1077
3418.2075,96.1131
3419.1719,96.1157
3420.1360,96.128
3421.1003,96.1516
3422.0645,96.1806
3423.0288,96.2112
3423.9929,96.2469
3424.9573,96.2945
3425.9214,96.3558
3426.8857,96.4229
3427.8499,96.4813
3428.8142,96.5195
3429.7783,96.5364
3430.7427,96.5417
3431.7068,96.5485
3432.6711,96.5648
3433.6353,96.5893
3434.5996,96.614
3435.5637,96.6302
3436.5281,96.6332
3437.4922,96.6221
3438.4565,96.598
3439.4207,96.562
3440.3850,96.5165
3441.3491,96.4683
3442.3135,96.4318
3443.2776,96.4259
3444.2419,96.4673
3445.2061,96.5601
3446.1704,96.6886
3447.1345,96.8208
3448.0989,96.9225
3449.0630,96.9745
3450.0273,96.9801
3450.9915,96.9604
3451.9558,96.9408
3452.9199,96.9388
3453.8843,96.9587
3454.8484,96.9933
3455.8127,97.0315
3456.7769,97.0665
3457.7412,97.0984
3458.7053,97.1328
3459.6697,97.1747
3460.6338,97.2248
3461.5981,97.277
3462.5623,97.3202
3463.5266,97.3438
3464.4907,97.3433
3465.4551,97.3251
3466.4192,97.3051
3467.3835,97.3034
3468.3477,97.3344
3469.3120,97.4006
3470.2761,97.4914
3471.2405,97.5898
3472.2046,97.6804
3473.1689,97.7544
3474.1331,97.8098
3475.0974,97.8473
3476.0615,97.8655
3477.0259,97.86
3477.9900,97.8258
3478.9543,97.7621
3479.9185,97.6761
3480.8828,97.5839
3481.8469,97.5083
3482.8113,97.4726
3483.7754,97.4928
3484.7397,97.5716
3485.7039,97.6944
3486.6682,97.8301
3487.6323,97.9385
3488.5967,97.9861
3489.5608,97.962
3490.5251,97.8844
3491.4893,97.7927
3492.4536,97.7296
3493.4177,97.7234
3494.3821,97.776
3495.3462,97.8623
3496.3105,97.9421
3497.2747,97.9795
3498.2390,97.9595
3499.2031,97.8934
3500.1675,97.8148
3501.1316,97.7676
3502.0959,97.7878
3503.0601,97.8836
3504.0244,98.0282
3504.9885,98.1728
3505.9529,98.2708
3506.9170,98.2968
3507.8813,98.2542
3508.8455,98.1728
3509.8098,98.0966
3510.7739,98.0641
3511.7383,98.0923
3512.7024,98.1728
3513.6667,98.281
3514.6309,98.3867
3515.5952,98.4638
3516.5593,98.4952
3517.5237,98.4774
3518.4878,98.4204
3519.4521,98.3453
3520.4163,98.2781
3521.3806,98.2414
3522.3447,98.2463
3523.3091,98.2881
3524.2732,98.3505
3525.2375,98.4154
3526.2017,98.4717
3527.1660,98.5164
3528.1301,98.549
3529.0945,98.5675
3530.0586,98.5701
3531.0229,98.5618
3531.9871,98.5571
3532.9514,98.5748
3533.9155,98.6239
3534.8799,98.6924
3535.8440,98.7469
3536.8083,98.7525
3537.7725,98.6987
3538.7368,98.6108
3539.7009,98.5344
3540.6653,98.5086
3541.6294,98.5442
3542.5938,98.6199
3543.5579,98.6957
3544.5222,98.7389
3545.4863,98.7458
3546.4507,98.741
3547.4148,98.7545
3548.3792,98.8005
3549.3433,98.8743
3550.3076,98.9615
3551.2717,99.046
3552.2361,99.1137
3553.2002,99.153
3554.1646,99.1574
3555.1287,99.1303
3556.0930,99.0873
3557.0571,99.053
3558.0215,99.0514
3558.9856,99.0925
3559.9500,99.1627
3560.9141,99.2295
3561.8784,99.259
3562.8425,99.2329
3563.8069,99.1564
3564.7710,99.0589
3565.7354,98.9877
3566.6995,98.9849
3567.6638,99.0567
3568.6279,99.173
3569.5923,99.2978
3570.5564,99.4119
3571.5208,99.5104
3572.4849,99.5941
3573.4492,99.6638
3574.4133,99.7196
3575.3777,99.7637
3576.3418,99.8012
3577.3062,99.8384
3578.2703,99.8788
3579.2346,99.9195
3580.1987,99.9512
3581.1631,99.9611
3582.1272,99.9377
3583.0916,99.8754
3584.0557,99.7784
3585.0200,99.6698
3585.9841,99.5954
3586.9485,99.6076
3587.9126,99.7235
3588.8770,99.9039
3589.8411,100.085
3590.8054,100.22
3591.7695,100.287
3592.7339,100.294
3593.6980,100.268
3594.6624,100.243
3595.6265,100.24
3596.5908,100.258
3597.5549,100.28
3598.5193,100.293
3599.4834,100.302
3600.4478,100.321
3601.4119,100.356
3602.3762,100.396
3603.3403,100.421
3604.3047,100.41
3605.2688,100.362
3606.2332,100.289
3607.1973,100.218
3608.1616,100.172
3609.1257,100.153
3610.0901,100.158
3611.0542,100.185
3612.0186,100.245
3612.9827,100.343
3613.9470,100.462
3614.9111,100.563
3615.8755,100.601
3616.8396,100.557
3617.8040,100.458
3618.7681,100.379
3619.7324,100.394
3620.6965,100.515
3621.6609,100.689
3622.6250,100.848
3623.5894,100.942
3624.5535,100.947
3625.5178,100.862
3626.4819,100.709
3627.4463,100.549
3628.4104,100.472
3629.3748,100.529
3630.3389,100.686
3631.3032,100.867
3632.2673,101.016
3633.2317,101.104
3634.1958,101.124
3635.1602,101.088
3636.1243,101.025
3637.0886,100.975
3638.0527,100.968
3639.0171,101.014
3639.9812,101.099
3640.9456,101.195
3641.9097,101.273
3642.8740,101.308
3643.8381,101.287
3644.8025,101.2
3645.7666,101.045
3646.7310,100.841
3647.6951,100.657
3648.6594,100.604
3649.6235,100.724
3650.5879,100.935
3651.5520,101.127
3652.5164,101.248
3653.4805,101.29
3654.4448,101.272
3655.4089,101.229
3656.3733,101.203
3657.3374,101.222
3658.3018,101.287
3659.2659,101.381
3660.2302,101.485
3661.1943,101.584
3662.1587,101.665
3663.1228,101.711
3664.0872,101.703
3665.0513,101.633
3666.0156,101.503
3666.9797,101.339
3667.9441,101.188
3668.9082,101.105
3669.8726,101.105
3670.8367,101.143
3671.8010,101.153
3672.7651,101.105
3673.7295,101.027
3674.6936,100.996
3675.6580,101.091
3676.6221,101.303
3677.5864,101.547
3678.5505,101.74
3679.5149,101.853
3680.4790,101.896
3681.4434,101.898
3682.4075,101.886
3683.3718,101.878
3684.3359,101.869
3685.3003,101.84
3686.2644,101.765
3687.2288,101.63
3688.1929,101.459
3689.1572,101.325
3690.1213,101.294
3691.0857,101.374
3692.0498,101.518
3693.0142,101.673
3693.9783,101.8
3694.9426,101.876
3695.9067,101.89
3696.8711,101.848
3697.8352,101.771
3698.7996,101.695
3699.7637,101.662
3700.7280,101.699
3701.6921,101.805
3702.6565,101.941
3703.6206,102.053
3704.5850,102.101
3705.5491,102.071
3706.5134,101.966
3707.4775,101.803
3708.4419,101.62
3709.4060,101.479
3710.3704,101.446
3711.3345,101.537
3712.2988,101.688
3713.2629,101.82
3714.2273,101.889
3715.1914,101.897
3716.1558,101.869
3717.1199,101.833
3718.0842,101.816
3719.0483,101.823
3720.0127,101.838
3720.9768,101.828
3721.9412,101.766
3722.9053,101.653
3723.8696,101.529
3724.8337,101.452
3725.7981,101.462
3726.7622,101.565
3727.7266,101.73
3728.6907,101.91
3729.6550,102.06
3730.6191,102.139
3731.5835,102.109
3732.5476,101.948
3733.5120,101.679
3734.4761,101.396
3735.4404,101.22
3736.4045,101.214
3737.3689,101.346
3738.3330,101.547
3739.2974,101.764
3740.2615,101.959
3741.2258,102.098
3742.1899,102.14
3743.1543,102.057
3744.1184,101.874
3745.0828,101.683
3746.0469,101.563
3747.0112,101.526
3747.9753,101.541
3748.9397,101.566
3749.9038,101.573
3750.8682,101.568
3751.8323,101.58
3752.7966,101.63
3753.7607,101.716
3754.7251,101.826
3755.6892,101.945
3756.6536,102.056
3757.6177,102.129
3758.5820,102.136
3759.5461,102.068
3760.5105,101.951
3761.4746,101.832
3762.4390,101.757
3763.4031,101.756
3764.3674,101.833
3765.3315,101.955
3766.2959,102.065
3767.2600,102.112
3768.2244,102.086
3769.1885,102.03
3770.1528,102.013
3771.1169,102.078
3772.0813,102.213
3773.0454,102.369
3774.0098,102.486
3774.9739,102.521
3775.9382,102.46
3776.9023,102.317
3777.8667,102.145
3778.8308,102.011
3779.7952,101.956
3780.7593,101.98
3781.7236,102.043
3782.6877,102.102
3783.6521,102.128
3784.6162,102.118
3785.5806,102.094
3786.5447,102.09
3787.5090,102.134
3788.4731,102.23
3789.4375,102.35
3790.4016,102.45
3791.3660,102.488
3792.3301,102.443
3793.2944,102.329
3794.2585,102.188
3795.2229,102.068
3796.1870,101.992
3797.1514,101.943
3798.1155,101.883
3799.0798,101.787
3800.0439,101.672
3801.0083,101.593
3801.9724,101.596
3802.9368,101.672
3803.9009,101.776
3804.8652,101.867
3805.8293,101.934
3806.7937,101.991
3807.7578,102.056
3808.7222,102.128
3809.6863,102.191
3810.6506,102.224
3811.6147,102.216
3812.5791,102.167
3813.5432,102.086
3814.5076,101.988
3815.4717,101.888
3816.4360,101.799
3817.4001,101.733
3818.3645,101.711
3819.3286,101.757
3820.2930,101.876
3821.2571,102.021
3822.2214,102.125
3823.1855,102.149
3824.1499,102.103
3825.1140,102.029
3826.0784,101.973
3827.0425,101.963
3828.0068,102.001
3828.9709,102.066
3829.9353,102.126
3830.8994,102.159
3831.8638,102.149
3832.8279,102.086
3833.7922,101.962
3834.7563,101.773
3835.7207,101.542
3836.6848,101.328
3837.6492,101.217
3838.6133,101.261
3839.5776,101.435
3840.5417,101.656
3841.5061,101.845
3842.4702,101.966
3843.4346,102.027
3844.3987,102.056
3845.3630,102.076
3846.3271,102.095
3847.2915,102.107
3848.2556,102.096
3849.2200,102.046
3850.1841,101.941
3851.1484,101.772
3852.1125,101.574
3853.0769,101.442
3854.0410,101.456
3855.0054,101.597
3855.9695,101.793
3856.9338,101.987
3857.8979,102.148
3858.8623,102.257
3859.8264,102.293
3860.7908,102.248
3861.7549,102.128
3862.7192,101.971
3863.6833,101.832
3864.6477,101.754
3865.6118,101.745
3866.5762,101.788
3867.5403,101.856
3868.5046,101.918
3869.4688,101.949
3870.4331,101.943
3871.3972,101.918
3872.3616,101.91
3873.3257,101.943
3874.2900,102.02
3875.2542,102.123
3876.2185,102.221
3877.1826,102.285
3878.1470,102.289
3879.1111,102.223
3880.0754,102.096
3881.0396,101.94
3882.0039,101.798
3882.9680,101.711
3883.9324,101.707
3884.8965,101.787
3885.8608,101.919
3886.8250,102.045
3887.7893,102.109
3888.7534,102.082
3889.7178,101.977
3890.6819,101.85
3891.6462,101.782
3892.6104,101.822
3893.5747,101.952
3894.5388,102.11
3895.5032,102.234
3896.4673,102.286
3897.4316,102.265
3898.3958,102.2
3899.3601,102.139
3900.3242,102.116
3901.2886,102.126
3902.2527,102.133
3903.2170,102.109
3904.1812,102.054
3905.1455,101.995
3906.1096,101.958
3907.0740,101.954
3908.0381,101.981
3909.0024,102.034
3909.9666,102.107
3910.9309,102.189
3911.8950,102.27
3912.8594,102.336
3913.8235,102.379
3914.7878,102.399
3915.7520,102.405
3916.7163,102.406
3917.6804,102.401
3918.6448,102.381
3919.6089,102.335
3920.5732,102.259
3921.5374,102.166
3922.5017,102.075
3923.4658,102.007
3924.4302,101.972
3925.3943,101.961
3926.3586,101.958
3927.3228,101.949
3928.2871,101.929
3929.2512,101.908
3930.2156,101.897
3931.1797,101.91
3932.1440,101.948
3933.1082,102.007
3934.0725,102.077
3935.0366,102.152
3936.0010,102.222
3936.9651,102.281
3937.9294,102.319
3938.8936,102.329
3939.8579,102.311
3940.8220,102.271
3941.7864,102.222
3942.7505,102.182
3943.7148,102.164
3944.6790,102.173
3945.6433,102.204
3946.6074,102.245
3947.5718,102.28
3948.5359,102.293
3949.5002,102.276
3950.4644,102.236
3951.4287,102.186
3952.3928,102.146
3953.3572,102.125
3954.3213,102.128
3955.2856,102.153
3956.2500,102.193
3957.2141,102.24
3958.1785,102.288
3959.1426,102.326
3960.1069,102.341
3961.0710,102.323
3962.0354,102.269
3962.9995,102.19
3963.9639,102.106
3964.9280,102.036
3965.8923,101.997
3966.8564,101.989
3967.8208,102.006
3968.7849,102.04
3969.7493,102.081
3970.7134,102.129
3971.6777,102.181
3972.6418,102.232
3973.6062,102.271
3974.5703,102.281
3975.5347,102.254
3976.4988,102.196
3977.4631,102.13
3978.4272,102.084
3979.3916,102.083
3980.3557,102.131
3981.3201,102.207
3982.2842,102.277
3983.2485,102.307
3984.2126,102.283
3985.1770,102.216
3986.1411,102.138
3987.1055,102.083
3988.0696,102.072
3989.0339,102.102
3989.9980,102.152
3990.9624,102.199
3991.9265,102.226
3992.8909,102.237
3993.8550,102.241
3994.8193,102.252
3995.7834,102.274
3996.7478,102.303
3997.7119,102.332
3998.6763,102.356
3999.6404,102.375
4000.6047,102.389
4001.5688,102.395
4002.5332,102.384
4003.4973,102.352
4004.4617,102.298
4005.4258,102.232
4006.3901,102.172
4007.3542,102.136
4008.3186,102.138
4009.2827,102.175
4010.2471,102.232
4011.2112,102.287
4012.1755,102.317
4013.1396,102.31
4014.1040,102.269
4015.0681,102.208
4016.0325,102.151
4016.9966,102.117
4017.9609,102.116
4018.9250,102.141
4019.8894,102.174
4020.8535,102.195
4021.8179,102.192
4022.7820,102.173
4023.7463,102.16
4024.7104,102.177
4025.6748,102.236
4026.6389,102.324
4027.6033,102.409
4028.5674,102.459
4029.5317,102.453
4030.4958,102.398
4031.4602,102.315
4032.4243,102.232
4033.3887,102.17
4034.3528,102.136
4035.3171,102.13
4036.2813,102.145
4037.2456,102.171
4038.2097,102.191
4039.1741,102.192
4040.1382,102.169
4041.1025,102.129
4042.0667,102.096
4043.0310,102.096
4043.9951,102.139
4044.9595,102.215
4045.9236,102.292
4046.8879,102.34
4047.8521,102.342
4048.8164,102.301
4049.7805,102.236
4050.7449,102.17
4051.7090,102.116
4052.6733,102.077
4053.6375,102.051
4054.6018,102.035
4055.5659,102.029
4056.5303,102.031
4057.4944,102.041
4058.4587,102.054
4059.4229,102.065
4060.3872,102.08
4061.3513,102.11
4062.3157,102.169
4063.2798,102.261
4064.2441,102.374
4065.2083,102.479
4066.1726,102.54
4067.1367,102.533
4068.1011,102.458
4069.0652,102.345
4070.0295,102.234
4070.9937,102.165
4071.9580,102.151
4072.9221,102.179
4073.8865,102.216
4074.8506,102.229
4075.8149,102.203
4076.7791,102.147
4077.7434,102.09
4078.7075,102.064
4079.6719,102.085
4080.6360,102.147
4081.6003,102.227
4082.5645,102.299
4083.5288,102.344
4084.4929,102.359
4085.4573,102.347
4086.4214,102.313
4087.3857,102.259
4088.3499,102.192
4089.3142,102.123
4090.2783,102.069
4091.2427,102.046
4092.2068,102.059
4093.1711,102.095
4094.1353,102.131
4095.0996,102.147
4096.0640,102.135
4097.0278,102.109
4097.9922,102.092
4098.9565,102.106
4099.9209,102.154
4100.8848,102.221
4101.8491,102.28
4102.8135,102.307
4103.7778,102.293
4104.7417,102.245
4105.7061,102.187
4106.6704,102.139
4107.6348,102.117
4108.5986,102.121
4109.5630,102.141
4110.5273,102.163
4111.4917,102.182
4112.4556,102.199
4113.4199,102.227
4114.3843,102.274
4115.3486,102.339
4116.3125,102.405
4117.2769,102.448
4118.2412,102.449
4119.2056,102.406
4120.1694,102.337
4121.1338,102.269
4122.0981,102.222
4123.0625,102.2
4124.0264,102.193
4124.9907,102.188
4125.9551,102.183
4126.9194,102.186
4127.8833,102.207
4128.8477,102.249
4129.8120,102.301
4130.7764,102.345
4131.7402,102.366
4132.7046,102.351
4133.6689,102.298
4134.6333,102.211
4135.5972,102.103
4136.5615,102
4137.5259,101.936
4138.4902,101.941
4139.4541,102.025
4140.4185,102.171
4141.3828,102.339
4142.3472,102.487
4143.3110,102.586
4144.2754,102.633
4145.2397,102.639
4146.2041,102.618
4147.1680,102.575
4148.1323,102.508
4149.0967,102.426
4150.0610,102.346
4151.0249,102.295
4151.9893,102.292
4152.9536,102.339
4153.9180,102.414
4154.8818,102.491
4155.8462,102.544
4156.8105,102.564
4157.7749,102.554
4158.7388,102.522
4159.7031,102.48
4160.6675,102.438
4161.6318,102.404
4162.5957,102.388
4163.5601,102.39
4164.5244,102.405
4165.4888,102.418
4166.4526,102.423
4167.4170,102.42
4168.3813,102.42
4169.3457,102.433
4170.3096,102.456
4171.2739,102.472
4172.2383,102.456
4173.2026,102.399
4174.1665,102.312
4175.1309,102.226
4176.0952,102.174
4177.0596,102.171
4178.0234,102.208
4178.9878,102.26
4179.9521,102.301
4180.9165,102.318
4181.8804,102.312
4182.8447,102.292
4183.8091,102.267
4184.7734,102.241
4185.7373,102.219
4186.7017,102.21
4187.6660,102.227
4188.6304,102.272
4189.5942,102.339
4190.5586,102.408
4191.5229,102.459
4192.4873,102.485
4193.4512,102.489
4194.4155,102.483
4195.3799,102.473
4196.3442,102.457
4197.3081,102.426
4198.2725,102.374
4199.2368,102.309
4200.2012,102.25

##### Extended Information
[コメント情報]
試料名
コメント
測定者
所属
会社,北海道大学　大学院理学研究院

[データ情報]
作成日時,2024/04/20 15:48

データタイプ,等間隔データ
横軸,Wavenumber [cm-1]
縦軸,%T
スタート,499.473 cm-1
エンド,4200.2 cm-1
データ間隔,0.964233 cm-1
データ数,3839    

[測定情報]
機種名,FT/IR-4100typeA
シリアル番号,C207261016

付属品名,ATR PRO450-S
付属品シリアルNo.,A083961272
入射角,45 度

測定日時,2024/04/20 15:48

光源,標準光源
検出器,TGS
積算回数,64
分解,4 cm-1
ゼロフィリング,On
アポダイゼーション,Cosine
ゲイン,Auto (16)
アパーチャー,Auto (7.1 mm)
スキャンスピード,Auto (2 mm/sec)
フィルタ,Auto (30000 Hz)

